ms;heartrate
0;504
2;504
4;504
6;504
8;506
10;508
12;507
14;508
16;508
18;509
20;518
22;509
24;506
26;507
28;507
30;512
32;501
34;504
36;502
38;508
40;510
42;505
44;506
46;507
48;509
50;520
52;517
54;523
56;526
58;536
60;548
62;551
64;565
66;587
68;607
70;626
72;640
74;649
76;642
78;615
80;606
82;568
84;532
86;505
88;478
90;461
92;436
94;433
96;431
98;433
100;439
102;441
104;448
106;447
108;454
110;460
112;466
114;474
116;478
118;483
120;485
122;492
124;494
126;495
128;499
130;499
132;500
134;501
136;502
138;503
140;503
142;507
144;504
146;502
148;502
150;505
152;510
154;506
156;509
158;512
160;515
162;518
164;510
166;508
168;509
170;507
172;512
174;503
176;504
178;508
180;506
182;507
184;506
186;506
188;512
190;509
192;513
194;510
196;509
198;511
200;509
202;511
204;505
206;505
208;508
210;507
212;514
214;510
216;513
218;516
220;515
222;519
224;510
226;509
228;507
230;507
232;512
234;514
236;510
238;512
240;513
242;512
244;512
246;513
248;515
250;518
252;521
254;518
256;523
258;520
260;521
262;518
264;518
266;523
268;518
270;515
272;515
274;518
276;521
278;522
280;523
282;523
284;524
286;527
288;521
290;523
292;528
294;525
296;533
298;529
300;528
302;528
304;527
306;532
308;523
310;525
312;526
314;526
316;534
318;528
320;529
322;530
324;525
326;528
328;518
330;515
332;517
334;515
336;517
338;515
340;514
342;518
344;512
346;510
348;510
350;506
352;511
354;502
356;502
358;498
360;499
362;495
364;495
366;493
368;492
370;491
372;493
374;491
376;493
378;492
380;491
382;489
384;491
386;487
388;487
390;488
392;485
394;493
396;487
398;496
400;488
402;486
404;489
406;487
408;493
410;484
412;482
414;488
416;491
418;494
420;490
422;490
424;499
426;493
428;490
430;493
432;492
434;490
436;493
438;496
440;493
442;497
444;495
446;496
448;496
450;497
452;497
454;498
456;499
458;503
460;501
462;505
464;503
466;500
468;497
470;500
472;493
474;495
476;496
478;496
480;496
482;498
484;498
486;500
488;502
490;499
492;502
494;504
496;503
498;502
500;499
502;503
504;500
506;502
508;500
510;504
512;504
514;504
516;506
518;505
520;506
522;505
524;503
526;503
528;502
530;505
532;503
534;504
536;504
538;503
540;505
542;504
544;504
546;502
548;504
550;504
552;503
554;505
556;503
558;507
560;505
562;503
564;503
566;506
568;505
570;505
572;504
574;503
576;504
578;506
580;508
582;507
584;510
586;513
588;515
590;517
592;513
594;507
596;502
598;496
600;496
602;496
604;495
606;495
608;497
610;498
612;501
614;502
616;504
618;506
620;504
622;504
624;502
626;504
628;504
630;502
632;506
634;506
636;503
638;505
640;502
642;504
644;504
646;503
648;506
650;508
652;506
654;508
656;506
658;505
660;504
662;504
664;504
666;504
668;504
670;504
672;504
674;505
676;505
678;506
680;506
682;507
684;504
686;506
688;504
690;506
692;505
694;507
696;505
698;504
700;506
702;506
704;508
706;508
708;512
710;504
712;503
714;503
716;503
718;504
720;507
722;510
724;510
726;513
728;512
730;509
732;507
734;499
736;495
738;493
740;495
742;497
744;499
746;499
748;502
750;505
752;506
754;506
756;506
758;506
760;506
762;503
764;503
766;501
768;501
770;503
772;505
774;506
776;509
778;508
780;507
782;506
784;503
786;506
788;506
790;505
792;504
794;506
796;502
798;505
800;503
802;505
804;507
806;506
808;507
810;506
812;508
814;507
816;508
818;511
820;511
822;510
824;507
826;508
828;508
830;507
832;506
834;511
836;511
838;509
840;510
842;508
844;502
846;501
848;500
850;496
852;499
854;504
856;506
858;507
860;509
862;505
864;506
866;506
868;505
870;502
872;506
874;506
876;507
878;507
880;508
882;507
884;509
886;507
888;508
890;506
892;508
894;512
896;509
898;509
900;513
902;508
904;508
906;507
908;506
910;507
912;510
914;508
916;506
918;504
920;506
922;505
924;502
926;502
928;503
930;498
932;499
934;501
936;505
938;502
940;503
942;502
944;502
946;500
948;498
950;504
952;504
954;503
956;504
958;504
960;506
962;504
964;507
966;507
968;504
970;502
972;506
974;506
976;506
978;506
980;506
982;508
984;510
986;514
988;520
990;525
992;538
994;554
996;569
998;585
1000;596
1002;614
1004;631
1006;643
1008;642
1010;615
1012;590
1014;570
1016;539
1018;512
1020;491
1022;466
1024;445
1026;435
1028;433
1030;432
1032;434
1034;438
1036;443
1038;446
1040;451
1042;459
1044;463
1046;471
1048;474
1050;482
1052;491
1054;495
1056;496
1058;498
1060;498
1062;498
1064;495
1066;498
1068;497
1070;498
1072;499
1074;498
1076;497
1078;499
1080;499
1082;502
1084;503
1086;503
1088;505
1090;507
1092;508
1094;512
1096;508
1098;508
1100;506
1102;503
1104;507
1106;504
1108;503
1110;504
1112;502
1114;504
1116;507
1118;506
1120;506
1122;505
1124;505
1126;505
1128;510
1130;514
1132;513
1134;513
1136;514
1138;509
1140;510
1142;509
1144;510
1146;510
1148;507
1150;511
1152;517
1154;525
1156;524
1158;520
1160;520
1162;513
1164;508
1166;503
1168;501
1170;505
1172;505
1174;507
1176;511
1178;514
1180;515
1182;515
1184;517
1186;519
1188;515
1190;512
1192;513
1194;513
1196;517
1198;517
1200;516
1202;518
1204;519
1206;521
1208;521
1210;522
1212;521
1214;523
1216;525
1218;529
1220;526
1222;525
1224;530
1226;527
1228;527
1230;527
1232;526
1234;526
1236;527
1238;526
1240;527
1242;528
1244;530
1246;530
1248;529
1250;527
1252;525
1254;527
1256;522
1258;518
1260;517
1262;520
1264;522
1266;525
1268;528
1270;528
1272;524
1274;520
1276;515
1278;509
1280;501
1282;497
1284;495
1286;494
1288;497
1290;496
1292;490
1294;491
1296;493
1298;493
1300;492
1302;489
1304;486
1306;486
1308;487
1310;488
1312;490
1314;488
1316;486
1318;487
1320;488
1322;483
1324;484
1326;484
1328;481
1330;485
1332;486
1334;485
1336;486
1338;486
1340;488
1342;488
1344;494
1346;497
1348;499
1350;492
1352;493
1354;493
1356;491
1358;490
1360;490
1362;491
1364;492
1366;495
1368;499
1370;497
1372;500
1374;504
1376;500
1378;495
1380;492
1382;494
1384;491
1386;491
1388;493
1390;495
1392;494
1394;494
1396;494
1398;497
1400;494
1402;497
1404;498
1406;498
1408;500
1410;502
1412;502
1414;510
1416;501
1418;501
1420;501
1422;508
1424;508
1426;504
1428;506
1430;505
1432;509
1434;510
1436;501
1438;500
1440;503
1442;508
1444;510
1446;506
1448;506
1450;506
1452;514
1454;514
1456;507
1458;505
1460;505
1462;510
1464;511
1466;506
1468;511
1470;511
1472;515
1474;510
1476;504
1478;502
1480;497
1482;502
1484;499
1486;495
1488;498
1490;501
1492;506
1494;502
1496;506
1498;504
1500;504
1502;508
1504;509
1506;509
1508;514
1510;510
1512;505
1514;503
1516;505
1518;505
1520;501
1522;502
1524;505
1526;514
1528;517
1530;509
1532;506
1534;506
1536;509
1538;506
1540;500
1542;496
1544;496
1546;503
1548;499
1550;500
1552;504
1554;504
1556;509
1558;506
1560;513
1562;519
1564;514
1566;511
1568;509
1570;506
1572;505
1574;497
1576;492
1578;498
1580;498
1582;501
1584;499
1586;499
1588;499
1590;506
1592;509
1594;505
1596;502
1598;504
1600;505
1602;502
1604;504
1606;509
1608;508
1610;511
1612;516
1614;506
1616;504
1618;502
1620;508
1622;508
1624;508
1626;511
1628;512
1630;514
1632;514
1634;509
1636;508
1638;503
1640;504
1642;502
1644;498
1646;502
1648;505
1650;511
1652;506
1654;508
1656;514
1658;510
1660;509
1662;505
1664;506
1666;506
1668;497
1670;499
1672;497
1674;505
1676;505
1678;504
1680;504
1682;504
1684;510
1686;508
1688;501
1690;504
1692;508
1694;508
1696;505
1698;508
1700;508
1702;510
1704;507
1706;505
1708;507
1710;510
1712;507
1714;504
1716;506
1718;503
1720;508
1722;507
1724;506
1726;505
1728;511
1730;518
1732;512
1734;512
1736;512
1738;514
1740;510
1742;501
1744;494
1746;498
1748;502
1750;501
1752;501
1754;509
1756;503
1758;504
1760;504
1762;505
1764;508
1766;504
1768;503
1770;507
1772;511
1774;507
1776;506
1778;506
1780;504
1782;506
1784;504
1786;501
1788;503
1790;502
1792;507
1794;506
1796;506
1798;504
1800;504
1802;506
1804;507
1806;505
1808;506
1810;507
1812;510
1814;515
1816;512
1818;511
1820;506
1822;504
1824;501
1826;497
1828;497
1830;498
1832;499
1834;501
1836;502
1838;504
1840;504
1842;508
1844;507
1846;507
1848;511
1850;504
1852;502
1854;502
1856;505
1858;507
1860;504
1862;503
1864;503
1866;505
1868;505
1870;504
1872;504
1874;507
1876;507
1878;508
1880;507
1882;506
1884;505
1886;505
1888;503
1890;503
1892;504
1894;504
1896;498
1898;501
1900;499
1902;503
1904;502
1906;500
1908;500
1910;500
1912;503
1914;505
1916;506
1918;503
1920;506
1922;505
1924;501
1926;502
1928;504
1930;507
1932;508
1934;507
1936;505
1938;503
1940;503
1942;504
1944;504
1946;504
1948;510
1950;512
1952;518
1954;528
1956;537
1958;543
1960;558
1962;574
1964;588
1966;608
1968;624
1970;638
1972;641
1974;620
1976;597
1978;577
1980;553
1982;526
1984;504
1986;478
1988;456
1990;438
1992;433
1994;431
1996;429
1998;430
2000;434
2002;438
2004;443
2006;449
2008;456
2010;461
2012;473
2014;474
2016;478
2018;483
2020;488
2022;495
2024;497
2026;498
2028;500
2030;498
2032;500
2034;498
2036;500
2038;497
2040;501
2042;501
2044;503
2046;502
2048;502
2050;504
2052;506
2054;503
2056;500
2058;504
2060;503
2062;505
2064;503
2066;505
2068;506
2070;507
2072;513
2074;506
2076;506
2078;506
2080;505
2082;506
2084;508
2086;511
2088;507
2090;506
2092;508
2094;506
2096;505
2098;508
2100;505
2102;510
2104;510
2106;514
2108;513
2110;509
2112;508
2114;507
2116;507
2118;507
2120;507
2122;507
2124;511
2126;512
2128;515
2130;512
2132;510
2134;507
2136;509
2138;508
2140;511
2142;508
2144;508
2146;510
2148;511
2150;514
2152;511
2154;512
2156;514
2158;515
2160;518
2162;514
2164;512
2166;518
2168;520
2170;520
2172;518
2174;520
2176;521
2178;524
2180;525
2182;524
2184;522
2186;522
2188;523
2190;525
2192;527
2194;525
2196;524
2198;527
2200;526
2202;525
2204;526
2206;527
2208;528
2210;524
2212;527
2214;526
2216;524
2218;522
2220;526
2222;524
2224;522
2226;523
2228;526
2230;523
2232;519
2234;514
2236;515
2238;515
2240;511
2242;508
2244;508
2246;507
2248;508
2250;508
2252;504
2254;498
2256;497
2258;489
2260;489
2262;485
2264;488
2266;485
2268;485
2270;482
2272;484
2274;482
2276;482
2278;483
2280;483
2282;483
2284;485
2286;484
2288;480
2290;479
2292;484
2294;485
2296;484
2298;488
2300;486
2302;484
2304;485
2306;487
2308;487
2310;490
2312;489
2314;489
2316;486
2318;485
2320;488
2322;491
2324;490
2326;490
2328;489
2330;489
2332;493
2334;492
2336;493
2338;492
2340;490
2342;492
2344;489
2346;491
2348;494
2350;495
2352;492
2354;495
2356;497
2358;497
2360;498
2362;495
2364;498
2366;494
2368;493
2370;497
2372;500
2374;500
2376;503
2378;505
2380;503
2382;503
2384;502
2386;496
2388;492
2390;495
2392;501
2394;507
2396;508
2398;510
2400;511
2402;506
2404;502
2406;497
2408;493
2410;491
2412;489
2414;491
2416;494
2418;496
2420;495
2422;500
2424;501
2426;505
2428;504
2430;506
2432;505
2434;502
2436;504
2438;504
2440;507
2442;516
2444;513
2446;512
2448;512
2450;512
2452;508
2454;499
2456;498
2458;498
2460;496
2462;496
2464;494
2466;495
2468;495
2470;499
2472;498
2474;499
2476;498
2478;501
2480;501
2482;503
2484;502
2486;503
2488;505
2490;506
2492;506
2494;504
2496;503
2498;504
2500;502
2502;505
2504;504
2506;502
2508;506
2510;502
2512;503
2514;504
2516;507
2518;507
2520;510
2522;509
2524;504
2526;506
2528;504
2530;506
2532;504
2534;503
2536;505
2538;505
2540;506
2542;505
2544;507
2546;509
2548;511
2550;512
2552;515
2554;520
2556;518
2558;514
2560;518
2562;518
2564;513
2566;504
2568;498
2570;490
2572;481
2574;481
2576;482
2578;483
2580;490
2582;494
2584;496
2586;495
2588;496
2590;499
2592;498
2594;501
2596;503
2598;502
2600;502
2602;503
2604;502
2606;505
2608;500
2610;501
2612;507
2614;502
2616;507
2618;507
2620;506
2622;506
2624;502
2626;506
2628;507
2630;506
2632;502
2634;501
2636;503
2638;505
2640;504
2642;502
2644;503
2646;507
2648;505
2650;504
2652;510
2654;505
2656;506
2658;504
2660;504
2662;509
2664;508
2666;508
2668;509
2670;508
2672;508
2674;509
2676;515
2678;513
2680;514
2682;512
2684;512
2686;503
2688;500
2690;494
2692;488
2694;491
2696;498
2698;500
2700;499
2702;501
2704;502
2706;502
2708;503
2710;507
2712;506
2714;507
2716;506
2718;506
2720;506
2722;509
2724;510
2726;509
2728;509
2730;508
2732;509
2734;508
2736;506
2738;516
2740;519
2742;525
2744;524
2746;523
2748;518
2750;514
2752;505
2754;502
2756;499
2758;498
2760;501
2762;505
2764;507
2766;505
2768;499
2770;499
2772;499
2774;496
2776;495
2778;494
2780;498
2782;496
2784;500
2786;500
2788;496
2790;497
2792;499
2794;501
2796;501
2798;504
2800;505
2802;503
2804;503
2806;505
2808;503
2810;503
2812;504
2814;502
2816;508
2818;508
2820;507
2822;512
2824;506
2826;506
2828;511
2830;511
2832;510
2834;511
2836;510
2838;517
2840;517
2842;522
2844;530
2846;536
2848;547
2850;559
2852;561
2854;574
2856;587
2858;603
2860;619
2862;626
2864;638
2866;616
2868;587
2870;574
2872;546
2874;513
2876;493
2878;473
2880;457
2882;434
2884;426
2886;429
2888;426
2890;432
2892;435
2894;441
2896;441
2898;452
2900;465
2902;465
2904;472
2906;480
2908;487
2910;487
2912;492
2914;500
2916;493
2918;493
2920;494
2922;496
2924;503
2926;504
2928;507
2930;507
2932;502
2934;508
2936;504
2938;500
2940;500
2942;499
2944;501
2946;502
2948;511
2950;508
2952;508
2954;506
2956;513
2958;516
2960;512
2962;514
2964;510
2966;514
2968;515
2970;508
2972;506
2974;507
2976;511
2978;513
2980;507
2982;510
2984;511
2986;514
2988;519
2990;517
2992;515
2994;514
2996;514
2998;504
3000;500
3002;502
3004;504
3006;512
3008;506
3010;512
3012;516
3014;518
3016;526
3018;515
3020;512
3022;508
3024;504
3026;504
3028;502
3030;505
3032;507
3034;512
3036;512
3038;513
3040;512
3042;512
3044;513
3046;513
3048;515
3050;521
3052;525
3054;518
3056;520
3058;521
3060;526
3062;533
3064;526
3066;527
3068;534
3070;542
3072;544
3074;534
3076;525
3078;517
3080;521
3082;513
3084;509
3086;516
3088;518
3090;528
3092;525
3094;527
3096;532
3098;533
3100;537
3102;535
3104;531
3106;529
3108;525
3110;529
3112;520
3114;517
3116;520
3118;513
3120;515
3122;518
3124;517
3126;517
3128;511
3130;510
3132;512
3134;512
3136;510
3138;504
3140;498
3142;497
3144;506
3146;504
3148;503
3150;506
3152;502
3154;503
3156;498
3158;496
3160;496
3162;489
3164;493
3166;485
3168;482
3170;479
3172;479
3174;483
3176;480
3178;482
3180;490
3182;485
3184;483
3186;481
3188;479
3190;484
3192;482
3194;484
3196;482
3198;489
3200;487
3202;488
3204;488
3206;494
3208;504
3210;502
3212;500
3214;493
3216;492
3218;489
3220;487
3222;486
3224;486
3226;493
3228;496
3230;504
3232;511
3234;508
3236;507
3238;504
3240;498
3242;500
3244;497
3246;499
3248;503
3250;507
3252;505
3254;506
3256;498
3258;500
3260;501
3262;497
3264;492
3266;497
3268;498
3270;496
3272;498
3274;497
3276;497
3278;498
3280;498
3282;493
3284;496
3286;500
3288;502
3290;499
3292;501
3294;503
3296;504
3298;506
3300;508
3302;507
3304;508
3306;509
3308;513
3310;510
3312;508
3314;506
3316;498
3318;503
3320;508
3322;503
3324;501
3326;497
3328;497
3330;498
3332;505
3334;502
3336;501
3338;503
3340;503
3342;503
3344;506
3346;503
3348;498
3350;498
3352;495
3354;502
3356;508
3358;508
3360;507
3362;506
3364;506
3366;499
3368;497
3370;499
3372;495
3374;496
3376;494
3378;491
3380;494
3382;496
3384;501
3386;505
3388;513
3390;518
3392;513
3394;503
3396;503
3398;501
3400;494
3402;494
3404;491
3406;499
3408;501
3410;500
3412;497
3414;496
3416;493
3418;489
3420;491
3422;492
3424;498
3426;497
3428;503
3430;503
3432;498
3434;503
3436;506
3438;503
3440;503
3442;502
3444;502
3446;499
3448;500
3450;506
3452;515
3454;511
3456;512
3458;514
3460;515
3462;514
3464;510
3466;504
3468;500
3470;497
3472;494
3474;491
3476;497
3478;495
3480;497
3482;508
3484;509
3486;508
3488;511
3490;512
3492;504
3494;502
3496;503
3498;507
3500;508
3502;509
3504;508
3506;508
3508;516
3510;512
3512;505
3514;502
3516;502
3518;508
3520;508
3522;503
3524;508
3526;508
3528;510
3530;508
3532;509
3534;511
3536;512
3538;514
3540;512
3542;505
3544;508
3546;502
3548;502
3550;506
3552;514
3554;518
3556;521
3558;519
3560;511
3562;506
3564;491
3566;505
3568;505
3570;500
3572;504
3574;511
3576;508
3578;515
3580;516
3582;515
3584;511
3586;511
3588;518
3590;522
3592;524
3594;522
3596;515
3598;511
3600;505
3602;500
3604;493
3606;490
3608;495
3610;497
3612;501
3614;511
3616;510
3618;513
3620;511
3622;507
3624;505
3626;502
3628;505
3630;502
3632;503
3634;512
3636;510
3638;507
3640;501
3642;500
3644;499
3646;507
3648;517
3650;522
3652;520
3654;525
3656;516
3658;511
3660;498
3662;497
3664;494
3666;493
3668;501
3670;503
3672;506
3674;512
3676;519
3678;517
3680;521
3682;530
3684;545
3686;568
3688;583
3690;592
3692;608
3694;628
3696;642
3698;649
3700;647
3702;622
3704;591
3706;575
3708;542
3710;514
3712;488
3714;465
3716;437
3718;427
3720;431
3722;424
3724;426
3726;429
3728;430
3730;435
3732;443
3734;454
3736;462
3738;467
3740;465
3742;462
3744;472
3746;486
3748;498
3750;499
3752;503
3754;508
3756;505
3758;498
3760;491
3762;492
3764;488
3766;493
3768;503
3770;496
3772;496
3774;503
3776;500
3778;499
3780;497
3782;493
3784;493
3786;491
3788;492
3790;491
3792;495
3794;493
3796;500
3798;501
3800;502
3802;504
3804;503
3806;504
3808;508
3810;510
3812;507
3814;507
3816;512
3818;511
3820;512
3822;503
3824;498
3826;493
3828;486
3830;493
3832;496
3834;496
3836;500
3838;502
3840;497
3842;502
3844;509
3846;514
3848;509
3850;501
3852;507
3854;495
3856;496
3858;504
3860;506
3862;509
3864;506
3866;514
3868;508
3870;511
3872;507
3874;511
3876;515
3878;517
3880;521
3882;519
3884;522
3886;527
3888;523
3890;520
3892;515
3894;513
3896;523
3898;533
3900;540
3902;536
3904;531
3906;533
3908;532
3910;528
3912;522
3914;519
3916;530
3918;528
3920;531
3922;532
3924;533
3926;536
3928;538
3930;541
3932;542
3934;541
3936;542
3938;539
3940;537
3942;537
3944;536
3946;536
3948;537
3950;534
3952;529
3954;529
3956;525
3958;525
3960;522
3962;519
3964;519
3966;517
3968;509
3970;510
3972;504
3974;506
3976;502
3978;501
3980;500
3982;495
3984;490
3986;488
3988;487
3990;490
3992;485
3994;485
3996;487
3998;483
4000;484
4002;481
4004;482
4006;481
4008;480
4010;484
4012;483
4014;479
4016;479
4018;481
4020;482
4022;481
4024;482
4026;483
4028;485
4030;484
4032;482
4034;481
4036;483
4038;486
4040;481
4042;481
4044;483
4046;481
4048;483
4050;483
4052;485
4054;491
4056;488
4058;486
4060;484
4062;484
4064;481
4066;481
4068;482
4070;487
4072;489
4074;487
4076;487
4078;486
4080;487
4082;487
4084;489
4086;486
4088;488
4090;486
4092;486
4094;490
4096;490
4098;489
4100;489
4102;487
4104;493
4106;492
4108;493
4110;494
4112;496
4114;497
4116;499
4118;499
4120;501
4122;500
4124;499
4126;498
4128;496
4130;499
4132;498
4134;499
4136;501
4138;504
4140;506
4142;504
4144;507
4146;510
4148;506
4150;504
4152;505
4154;504
4156;507
4158;508
4160;510
4162;507
4164;504
4166;502
4168;499
4170;497
4172;500
4174;500
4176;502
4178;506
4180;506
4182;507
4184;504
4186;504
4188;501
4190;501
4192;500
4194;501
4196;508
4198;505
4200;507
4202;506
4204;505
4206;504
4208;505
4210;506
4212;508
4214;507
4216;509
4218;506
4220;504
4222;506
4224;506
4226;502
4228;505
4230;503
4232;502
4234;504
4236;501
4238;500
4240;498
4242;499
4244;500
4246;502
4248;501
4250;501
4252;503
4254;503
4256;505
4258;503
4260;504
4262;505
4264;505
4266;506
4268;503
4270;505
4272;512
4274;507
4276;503
4278;503
4280;503
4282;500
4284;511
4286;505
4288;504
4290;505
4292;504
4294;509
4296;503
4298;510
4300;503
4302;503
4304;506
4306;504
4308;508
4310;514
4312;505
4314;509
4316;509
4318;510
4320;506
4322;505
4324;502
4326;503
4328;508
4330;507
4332;504
4334;502
4336;506
4338;506
4340;507
4342;503
4344;504
4346;505
4348;503
4350;511
4352;506
4354;508
4356;505
4358;501
4360;510
4362;502
4364;502
4366;501
4368;504
4370;505
4372;504
4374;509
4376;508
4378;508
4380;509
4382;506
4384;511
4386;504
4388;503
4390;507
4392;504
4394;507
4396;505
4398;507
4400;512
4402;511
4404;510
4406;513
4408;510
4410;514
4412;511
4414;512
4416;515
4418;513
4420;519
4422;514
4424;511
4426;511
4428;507
4430;508
4432;498
4434;493
4436;495
4438;499
4440;503
4442;500
4444;502
4446;505
4448;501
4450;505
4452;502
4454;500
4456;499
4458;499
4460;502
4462;500
4464;501
4466;504
4468;502
4470;505
4472;503
4474;502
4476;504
4478;504
4480;509
4482;505
4484;503
4486;506
4488;510
4490;511
4492;507
4494;504
4496;504
4498;513
4500;515
4502;513
4504;519
4506;529
4508;543
4510;556
4512;562
4514;577
4516;591
4518;619
4520;637
4522;645
4524;645
4526;623
4528;600
4530;581
4532;545
4534;517
4536;493
4538;480
4540;454
4542;434
4544;431
4546;433
4548;437
4550;439
4552;436
4554;439
4556;444
4558;456
4560;464
4562;465
4564;476
4566;475
4568;479
4570;481
4572;489
4574;501
4576;497
4578;498
4580;500
4582;499
4584;507
4586;501
4588;504
4590;502
4592;504
4594;509
4596;508
4598;507
4600;506
4602;508
4604;513
4606;504
4608;505
4610;504
4612;509
4614;510
4616;505
4618;504
4620;503
4622;511
4624;517
4626;508
4628;508
4630;510
4632;514
4634;515
4636;508
4638;510
4640;510
4642;511
4644;511
4646;505
4648;506
4650;506
4652;515
4654;517
4656;509
4658;508
4660;507
4662;509
4664;510
4666;512
4668;519
4670;513
4672;514
4674;515
4676;517
4678;521
4680;515
4682;513
4684;514
4686;512
4688;515
4690;509
4692;509
4694;511
4696;515
4698;519
4700;515
4702;518
4704;517
4706;520
4708;518
4710;515
4712;520
4714;520
4716;524
4718;520
4720;522
4722;523
4724;523
4726;523
4728;520
4730;527
4732;527
4734;527
4736;524
4738;524
4740;525
4742;527
4744;528
4746;530
4748;531
4750;528
4752;533
4754;530
4756;529
4758;528
4760;500
4762;499
4764;495
4766;493
4768;491
4770;492
4772;492
4774;487
4776;488
4778;488
4780;486
4782;484
4784;485
4786;484
4788;483
4790;484
4792;483
4794;481
4796;482
4798;482
4800;482
4802;484
4804;487
4806;485
4808;486
4810;485
4812;485
4814;481
4816;482
4818;481
4820;484
4822;486
4824;489
4826;490
4828;489
4830;489
4832;491
4834;492
4836;490
4838;493
4840;491
4842;492
4844;491
4846;493
4848;492
4850;494
4852;492
4854;493
4856;500
4858;498
4860;500
4862;499
4864;498
4866;498
4868;497
4870;499
4872;497
4874;498
4876;500
4878;501
4880;500
4882;501
4884;499
4886;499
4888;500
4890;499
4892;500
4894;500
4896;502
4898;503
4900;501
4902;501
4904;504
4906;504
4908;505
4910;507
4912;506
4914;502
4916;499
4918;499
4920;503
4922;505
4924;505
4926;506
4928;507
4930;505
4932;503
4934;505
4936;504
4938;504
4940;505
4942;504
4944;507
4946;507
4948;506
4950;503
4952;506
4954;502
4956;502
4958;501
4960;501
4962;503
4964;505
4966;507
4968;506
4970;507
4972;505
4974;504
4976;502
4978;504
4980;500
4982;501
4984;502
4986;503
4988;505
4990;506
4992;507
4994;504
4996;505
4998;507
5000;506
5002;504
5004;505
5006;504
5008;503
5010;501
5012;506
5014;501
5016;501
5018;506
5020;509
5022;509
5024;511
5026;510
5028;510
5030;504
5032;505
5034;504
5036;501
5038;501
5040;502
5042;501
5044;502
5046;497
5048;500
5050;504
5052;505
5054;501
5056;505
5058;505
5060;506
5062;504
5064;506
5066;502
5068;501
5070;501
5072;501
5074;497
5076;501
5078;500
5080;501
5082;503
5084;503
5086;507
5088;502
5090;505
5092;505
5094;505
5096;503
5098;505
5100;506
5102;505
5104;507
5106;505
5108;506
5110;507
5112;504
5114;503
5116;501
5118;499
5120;502
5122;502
5124;502
5126;505
5128;505
5130;505
5132;507
5134;505
5136;506
5138;508
5140;506
5142;506
5144;505
5146;504
5148;505
5150;508
5152;508
5154;507
5156;508
5158;505
5160;505
5162;505
5164;507
5166;507
5168;505
5170;504
5172;502
5174;503
5176;507
5178;505
5180;505
5182;504
5184;502
5186;506
5188;504
5190;504
5192;504
5194;506
5196;506
5198;507
5200;509
5202;508
5204;507
5206;505
5208;508
5210;507
5212;509
5214;507
5216;507
5218;506
5220;507
5222;509
5224;507
5226;510
5228;512
5230;512
5232;511
5234;509
5236;507
5238;507
5240;506
5242;505
5244;504
5246;505
5248;508
5250;506
5252;505
5254;504
5256;507
5258;506
5260;506
5262;504
5264;508
5266;508
5268;508
5270;508
5272;505
5274;507
5276;503
5278;502
5280;502
5282;501
5284;500
5286;499
5288;501
5290;501
5292;502
5294;499
5296;501
5298;505
5300;503
5302;504
5304;507
5306;505
5308;503
5310;508
5312;507
5314;505
5316;506
5318;507
5320;505
5322;504
5324;506
5326;506
5328;506
5330;515
5332;521
5334;525
5336;538
5338;550
5340;561
5342;578
5344;599
5346;618
5348;636
5350;647
5352;652
5354;630
5356;604
5358;583
5360;555
5362;517
5364;492
5366;468
5368;442
5370;433
5372;427
5374;425
5376;428
5378;435
5380;437
5382;439
5384;447
5386;452
5388;458
5390;466
5392;469
5394;476
5396;484
5398;489
5400;493
5402;497
5404;498
5406;499
5408;503
5410;497
5412;498
5414;501
5416;501
5418;501
5420;502
5422;501
5424;504
5426;504
5428;505
5430;506
5432;506
5434;503
5436;503
5438;502
5440;504
5442;502
5444;506
5446;504
5448;507
5450;505
5452;504
5454;508
5456;506
5458;507
5460;508
5462;506
5464;505
5466;507
5468;507
5470;507
5472;509
5474;507
5476;507
5478;507
5480;508
5482;508
5484;507
5486;511
5488;512
5490;512
5492;510
5494;505
5496;503
5498;505
5500;506
5502;504
5504;508
5506;507
5508;509
5510;511
5512;509
5514;511
5516;511
5518;512
5520;514
5522;513
5524;515
5526;514
5528;514
5530;516
5532;516
5534;517
5536;517
5538;517
5540;519
5542;520
5544;520
5546;522
5548;522
5550;521
5552;524
5554;524
5556;526
5558;526
5560;524
5562;523
5564;523
5566;525
5568;528
5570;527
5572;527
5574;528
5576;530
5578;532
5580;530
5582;530
5584;531
5586;531
5588;528
5590;530
5592;525
5594;524
5596;523
5598;523
5600;522
5602;525
5604;523
5606;522
5608;523
5610;521
5612;520
5614;521
5616;518
5618;516
5620;517
5622;513
5624;512
5626;508
5628;505
5630;504
5632;505
5634;504
5636;497
5638;495
5640;495
5642;489
5644;490
5646;488
5648;486
5650;485
5652;486
5654;486
5656;484
5658;485
5660;483
5662;484
5664;484
5666;484
5668;484
5670;483
5672;482
5674;483
5676;484
5678;484
5680;484
5682;485
5684;486
5686;487
5688;490
5690;489
5692;490
5694;491
5696;491
5698;490
5700;493
5702;490
5704;492
5706;491
5708;496
5710;494
5712;493
5714;492
5716;492
5718;493
5720;500
5722;498
5724;502
5726;497
5728;495
5730;496
5732;496
5734;503
5736;508
5738;501
5740;500
5742;503
5744;507
5746;509
5748;502
5750;501
5752;499
5754;503
5756;504
5758;499
5760;498
5762;501
5764;504
5766;501
5768;501
5770;500
5772;500
5774;501
5776;509
5778;499
5780;500
5782;502
5784;504
5786;506
5788;503
5790;504
5792;504
5794;505
5796;504
5798;503
5800;504
5802;504
5804;503
5806;505
5808;505
5810;510
5812;509
5814;506
5816;506
5818;507
5820;508
5822;507
5824;501
5826;503
5828;503
5830;504
5832;507
5834;503
5836;508
5838;506
5840;513
5842;510
5844;506
5846;504
5848;507
5850;510
5852;511
5854;506
5856;503
5858;501
5860;501
5862;510
5864;503
5866;503
5868;505
5870;504
5872;511
5874;503
5876;504
5878;501
5880;502
5882;509
5884;503
5886;500
5888;504
5890;505
5892;510
5894;505
5896;502
5898;503
5900;509
5902;509
5904;502
5906;504
5908;503
5910;509
5912;508
5914;503
5916;501
5918;504
5920;508
5922;506
5924;499
5926;504
5928;503
5930;510
5932;505
5934;503
5936;502
5938;504
5940;507
5942;506
5944;505
5946;507
5948;505
5950;508
5952;505
5954;505
5956;503
5958;501
5960;508
5962;504
5964;503
5966;504
5968;502
5970;508
5972;502
5974;502
5976;505
5978;505
5980;506
5982;504
5984;503
5986;506
5988;502
5990;507
5992;504
5994;505
5996;513
5998;506
6000;506
6002;504
6004;508
6006;512
6008;504
6010;506
6012;503
6014;512
6016;512
6018;507
6020;506
6022;506
6024;506
6026;509
6028;504
6030;505
6032;502
6034;509
6036;511
6038;506
6040;504
6042;504
6044;510
6046;507
6048;503
6050;505
6052;506
6054;512
6056;509
6058;506
6060;507
6062;505
6064;511
6066;509
6068;505
6070;506
6072;504
6074;511
6076;505
6078;504
6080;502
6082;501
6084;507
6086;507
6088;506
6090;506
6092;506
6094;506
6096;503
6098;504
6100;512
6102;505
6104;506
6106;505
6108;504
6110;510
6112;504
6114;506
6116;506
6118;505
6120;508
6122;506
6124;508
6126;507
6128;510
6130;513
6132;508
6134;507
6136;507
6138;506
6140;511
6142;507
6144;504
6146;508
6148;505
6150;506
6152;509
6154;507
6156;506
6158;508
6160;507
6162;505
6164;504
6166;502
6168;503
6170;502
6172;502
6174;504
6176;502
6178;502
6180;501
6182;501
6184;500
6186;499
6188;503
6190;501
6192;504
6194;503
6196;502
6198;506
6200;509
6202;511
6204;518
6206;526
6208;536
6210;542
6212;557
6214;575
6216;592
6218;611
6220;627
6222;642
6224;643
6226;619
6228;588
6230;573
6232;545
6234;516
6236;493
6238;469
6240;450
6242;435
6244;435
6246;429
6248;432
6250;436
6252;439
6254;441
6256;446
6258;454
6260;458
6262;465
6264;468
6266;473
6268;481
6270;489
6272;491
6274;494
6276;495
6278;496
6280;497
6282;495
6284;495
6286;498
6288;499
6290;498
6292;501
6294;499
6296;501
6298;499
6300;503
6302;500
6304;502
6306;504
6308;503
6310;502
6312;503
6314;505
6316;504
6318;505
6320;506
6322;505
6324;504
6326;506
6328;506
6330;503
6332;504
6334;505
6336;504
6338;504
6340;504
6342;505
6344;504
6346;507
6348;508
6350;507
6352;504
6354;509
6356;508
6358;509
6360;511
6362;508
6364;509
6366;508
6368;507
6370;509
6372;507
6374;509
6376;510
6378;510
6380;509
6382;512
6384;510
6386;512
6388;511
6390;512
6392;509
6394;509
6396;513
6398;514
6400;514
6402;518
6404;515
6406;519
6408;518
6410;517
6412;515
6414;515
6416;517
6418;516
6420;520
6422;517
6424;519
6426;520
6428;522
6430;525
6432;524
6434;523
6436;524
6438;523
6440;526
6442;524
6444;525
6446;527
6448;527
6450;528
6452;528
6454;528
6456;527
6458;530
6460;530
6462;528
6464;526
6466;525
6468;523
6470;522
6472;521
6474;525
6476;522
6478;522
6480;520
6482;520
6484;517
6486;516
6488;517
6490;514
6492;511
6494;510
6496;506
6498;507
6500;504
6502;499
6504;502
6506;497
6508;495
6510;495
6512;492
6514;493
6516;491
6518;487
6520;486
6522;486
6524;486
6526;486
6528;486
6530;485
6532;487
6534;486
6536;487
6538;485
6540;485
6542;480
6544;484
6546;482
6548;482
6550;483
6552;484
6554;484
6556;483
6558;485
6560;489
6562;490
6564;488
6566;487
6568;486
6570;489
6572;488
6574;490
6576;490
6578;492
6580;494
6582;494
6584;493
6586;493
6588;493
6590;492
6592;491
6594;490
6596;495
6598;494
6600;495
6602;495
6604;499
6606;500
6608;498
6610;498
6612;498
6614;499
6616;497
6618;495
6620;496
6622;496
6624;495
6626;497
6628;498
6630;499
6632;499
6634;500
6636;500
6638;500
6640;499
6642;497
6644;499
6646;499
6648;500
6650;497
6652;501
6654;500
6656;500
6658;501
6660;502
6662;502
6664;502
6666;500
6668;503
6670;503
6672;504
6674;506
6676;502
6678;501
6680;502
6682;504
6684;498
6686;500
6688;501
6690;505
6692;506
6694;506
6696;505
6698;503
6700;502
6702;503
6704;505
6706;504
6708;505
6710;505
6712;504
6714;506
6716;504
6718;505
6720;503
6722;504
6724;502
6726;501
6728;501
6730;500
6732;501
6734;505
6736;503
6738;504
6740;504
6742;506
6744;505
6746;504
6748;504
6750;506
6752;503
6754;504
6756;505
6758;503
6760;502
6762;501
6764;503
6766;506
6768;502
6770;503
6772;501
6774;501
6776;503
6778;501
6780;499
6782;504
6784;502
6786;501
6788;504
6790;503
6792;504
6794;502
6796;504
6798;503
6800;504
6802;503
6804;503
6806;502
6808;501
6810;503
6812;502
6814;504
6816;501
6818;504
6820;504
6822;502
6824;506
6826;503
6828;507
6830;503
6832;503
6834;504
6836;505
6838;506
6840;505
6842;505
6844;505
6846;503
6848;505
6850;503
6852;505
6854;504
6856;503
6858;504
6860;505
6862;503
6864;505
6866;502
6868;505
6870;504
6872;505
6874;508
6876;507
6878;506
6880;506
6882;502
6884;503
6886;504
6888;503
6890;502
6892;506
6894;503
6896;505
6898;506
6900;506
6902;507
6904;508
6906;504
6908;505
6910;508
6912;506
6914;508
6916;507
6918;506
6920;508
6922;508
6924;504
6926;501
6928;504
6930;504
6932;502
6934;503
6936;504
6938;504
6940;503
6942;503
6944;502
6946;504
6948;505
6950;504
6952;504
6954;503
6956;505
6958;507
6960;504
6962;504
6964;506
6966;505
6968;507
6970;506
6972;505
6974;506
6976;506
6978;502
6980;503
6982;505
6984;506
6986;510
6988;510
6990;510
6992;507
6994;506
6996;505
6998;505
7000;505
7002;503
7004;502
7006;504
7008;504
7010;502
7012;507
7014;506
7016;511
7018;512
7020;510
7022;512
7024;513
7026;511
7028;509
7030;507
7032;504
7034;507
7036;506
7038;507
7040;506
7042;505
7044;505
7046;504
7048;505
7050;503
7052;503
7054;503
7056;505
7058;504
7060;506
7062;506
7064;504
7066;503
7068;504
7070;506
7072;503
7074;503
7076;501
7078;499
7080;502
7082;502
7084;503
7086;500
7088;501
7090;506
7092;505
7094;505
7096;504
7098;508
7100;505
7102;507
7104;507
7106;510
7108;504
7110;501
7112;502
7114;506
7116;508
7118;514
7120;520
7122;535
7124;538
7126;553
7128;571
7130;583
7132;599
7134;616
7136;634
7138;646
7140;635
7142;604
7144;582
7146;560
7148;541
7150;505
7152;487
7154;463
7156;448
7158;439
7160;434
7162;437
7164;431
7166;431
7168;438
7170;441
7172;449
7174;451
7176;458
7178;467
7180;473
7182;478
7184;486
7186;483
7188;489
7190;494
7192;499
7194;497
7196;498
7198;499
7200;499
7202;505
7204;508
7206;502
7208;501
7210;503
7212;503
7214;505
7216;503
7218;503
7220;505
7222;504
7224;509
7226;510
7228;508
7230;504
7232;502
7234;505
7236;510
7238;511
7240;506
7242;507
7244;508
7246;511
7248;511
7250;505
7252;507
7254;506
7256;509
7258;511
7260;511
7262;509
7264;508
7266;513
7268;511
7270;507
7272;507
7274;507
7276;510
7278;516
7280;510
7282;508
7284;511
7286;512
7288;515
7290;511
7292;513
7294;512
7296;511
7298;516
7300;510
7302;515
7304;511
7306;512
7308;512
7310;511
7312;514
7314;512
7316;514
7318;517
7320;514
7322;517
7324;515
7326;515
7328;520
7330;519
7332;518
7334;517
7336;520
7338;526
7340;520
7342;521
7344;521
7346;525
7348;528
7350;524
7352;526
7354;529
7356;527
7358;532
7360;524
7362;528
7364;525
7366;528
7368;533
7370;527
7372;525
7374;526
7376;528
7378;535
7380;530
7382;532
7384;529
7386;527
7388;528
7390;521
7392;518
7394;518
7396;519
7398;519
7400;514
7402;509
7404;508
7406;511
7408;512
7410;509
7412;507
7414;503
7416;505
7418;497
7420;496
7422;497
7424;494
7426;498
7428;489
7430;486
7432;485
7434;486
7436;491
7438;488
7440;484
7442;483
7444;483
7446;493
7448;483
7450;482
7452;484
7454;483
7456;484
7458;481
7460;486
7462;489
7464;484
7466;485
7468;486
7470;487
7472;489
7474;484
7476;487
7478;489
7480;494
7482;494
7484;481
7486;483
7488;483
7490;484
7492;490
7494;485
7496;487
7498;488
7500;496
7502;496
7504;490
7506;492
7508;491
7510;494
7512;491
7514;492
7516;495
7518;497
7520;503
7522;494
7524;495
7526;495
7528;498
7530;504
7532;498
7534;494
7536;497
7538;495
7540;504
7542;500
7544;502
7546;503
7548;500
7550;505
7552;496
7554;496
7556;498
7558;500
7560;499
7562;502
7564;501
7566;503
7568;500
7570;500
7572;502
7574;500
7576;500
7578;500
7580;501
7582;500
7584;500
7586;503
7588;503
7590;501
7592;503
7594;505
7596;504
7598;504
7600;501
7602;501
7604;505
7606;502
7608;503
7610;502
7612;503
7614;500
7616;505
7618;502
7620;499
7622;502
7624;500
7626;502
7628;503
7630;501
7632;503
7634;506
7636;503
7638;501
7640;502
7642;502
7644;505
7646;503
7648;501
7650;506
7652;507
7654;502
7656;504
7658;504
7660;503
7662;500
7664;503
7666;502
7668;502
7670;503
7672;502
7674;503
7676;503
7678;503
7680;503
7682;504
7684;501
7686;502
7688;499
7690;505
7692;502
7694;500
7696;505
7698;503
7700;503
7702;504
7704;502
7706;499
7708;498
7710;499
7712;499
7714;503
7716;506
7718;507
7720;504
7722;505
7724;501
7726;503
7728;505
7730;506
7732;501
7734;499
7736;502
7738;498
7740;502
7742;502
7744;503
7746;503
7748;504
7750;506
7752;507
7754;505
7756;503
7758;507
7760;505
7762;508
7764;503
7766;506
7768;507
7770;506
7772;505
7774;506
7776;503
7778;503
7780;506
7782;508
7784;511
7786;509
7788;510
7790;507
7792;505
7794;503
7796;500
7798;502
7800;502
7802;504
7804;504
7806;505
7808;502
7810;502
7812;505
7814;506
7816;506
7818;507
7820;500
7822;502
7824;508
7826;504
7828;507
7830;506
7832;509
7834;511
7836;511
7838;514
7840;513
7842;511
7844;504
7846;505
7848;512
7850;511
7852;508
7854;506
7856;506
7858;510
7860;501
7862;504
7864;506
7866;510
7868;506
7870;504
7872;507
7874;506
7876;505
7878;507
7880;505
7882;505
7884;501
7886;500
7888;499
7890;500
7892;501
7894;501
7896;505
7898;504
7900;503
7902;505
7904;505
7906;505
7908;504
7910;503
7912;499
7914;504
7916;505
7918;508
7920;511
7922;509
7924;507
7926;506
7928;516
7930;520
7932;528
7934;539
7936;546
7938;563
7940;580
7942;597
7944;615
7946;628
7948;637
7950;635
7952;616
7954;589
7956;567
7958;536
7960;506
7962;487
7964;463
7966;440
7968;435
7970;429
7972;426
7974;425
7976;427
7978;435
7980;438
7982;445
7984;456
7986;461
7988;466
7990;473
7992;476
7994;474
7996;480
7998;491
8000;498
8002;498
8004;501
8006;503
8008;504
8010;505
8012;503
8014;507
8016;505
8018;504
8020;505
8022;506
8024;505
8026;506
8028;508
8030;505
8032;504
8034;506
8036;504
8038;508
8040;510
8042;509
8044;505
8046;504
8048;503
8050;507
8052;507
8054;508
8056;511
8058;512
8060;508
8062;505
8064;511
8066;514
8068;508
8070;508
8072;511
8074;511
8076;516
8078;512
8080;512
8082;511
8084;513
8086;512
8088;509
8090;512
8092;512
8094;511
8096;509
8098;509
8100;511
8102;515
8104;513
8106;515
8108;515
8110;516
8112;521
8114;515
8116;514
8118;516
8120;518
8122;516
8124;519
8126;517
8128;517
8130;513
8132;516
8134;518
8136;524
8138;521
8140;521
8142;527
8144;529
8146;529
8148;523
8150;526
8152;530
8154;523
8156;519
8158;524
8160;525
8162;523
8164;529
8166;532
8168;532
8170;530
8172;529
8174;533
8176;532
8178;529
8180;529
8182;530
8184;530
8186;534
8188;532
8190;523
8192;525
8194;530
8196;527
8198;523
8200;524
8202;522
8204;522
8206;523
8208;518
8210;520
8212;518
8214;514
8216;509
8218;506
8220;505
8222;503
8224;501
8226;497
8228;496
8230;492
8232;493
8234;492
8236;492
8238;491
8240;489
8242;488
8244;481
8246;479
8248;486
8250;481
8252;483
8254;479
8256;477
8258;479
8260;480
8262;482
8264;482
8266;478
8268;477
8270;481
8272;483
8274;480
8276;479
8278;484
8280;484
8282;482
8284;483
8286;484
8288;487
8290;486
8292;483
8294;484
8296;489
8298;490
8300;491
8302;491
8304;491
8306;493
8308;488
8310;493
8312;490
8314;490
8316;492
8318;494
8320;496
8322;494
8324;494
8326;492
8328;496
8330;493
8332;494
8334;500
8336;497
8338;505
8340;498
8342;493
8344;497
8346;497
8348;496
8350;499
8352;503
8354;505
8356;504
8358;501
8360;502
8362;505
8364;501
8366;503
8368;498
8370;502
8372;497
8374;501
8376;505
8378;504
8380;505
8382;507
8384;508
8386;512
8388;509
8390;506
8392;506
8394;503
8396;502
8398;503
8400;504
8402;504
8404;508
8406;511
8408;507
8410;498
8412;502
8414;507
8416;513
8418;508
8420;507
8422;503
8424;506
8426;509
8428;507
8430;509
8432;505
8434;506
8436;511
8438;507
8440;502
8442;507
8444;509
8446;505
8448;511
8450;509
8452;502
8454;504
8456;504
8458;503
8460;505
8462;507
8464;506
8466;506
8468;509
8470;507
8472;509
8474;509
8476;509
8478;507
8480;502
8482;505
8484;508
8486;503
8488;499
8490;501
8492;505
8494;507
8496;507
8498;508
8500;508
8502;507
8504;505
8506;504
8508;504
8510;504
8512;509
8514;510
8516;504
8518;498
8520;498
8522;500
8524;508
8526;507
8528;501
8530;501
8532;507
8534;505
8536;504
8538;505
8540;505
8542;505
8544;507
8546;505
8548;503
8550;502
8552;503
8554;501
8556;506
8558;505
8560;505
8562;499
8564;499
8566;502
8568;509
8570;505
8572;513
8574;508
8576;502
8578;504
8580;507
8582;503
8584;504
8586;502
8588;509
8590;510
8592;510
8594;509
8596;504
8598;502
8600;503
8602;508
8604;505
8606;504
8608;506
8610;506
8612;507
8614;506
8616;503
8618;506
8620;509
8622;513
8624;504
8626;502
8628;503
8630;504
8632;509
8634;509
8636;507
8638;505
8640;507
8642;509
8644;511
8646;512
8648;517
8650;508
8652;509
8654;505
8656;503
8658;505
8660;500
8662;501
8664;502
8666;503
8668;507
8670;499
8672;500
8674;502
8676;506
8678;511
8680;503
8682;501
8684;503
8686;502
8688;502
8690;501
8692;508
8694;498
8696;495
8698;499
8700;499
8702;504
8704;498
8706;499
8708;502
8710;497
8712;505
8714;502
8716;499
8718;509
8720;505
8722;503
8724;504
8726;505
8728;510
8730;502
8732;506
8734;504
8736;515
8738;525
8740;530
8742;539
8744;549
8746;570
8748;587
8750;593
8752;609
8754;625
8756;642
8758;640
8760;611
8762;588
8764;563
8766;529
8768;497
8770;475
8772;452
8774;435
8776;416
8778;415
8780;418
8782;423
8784;429
8786;434
8788;439
8790;455
8792;453
8794;461
8796;468
8798;472
8800;478
8802;478
8804;486
8806;493
8808;495
8810;502
8812;499
8814;501
8816;499
8818;508
8820;512
8822;505
8824;508
8826;505
8828;511
8830;513
8832;506
8834;505
8836;505
8838;510
8840;508
8842;502
8844;503
8846;506
8848;509
8850;508
8852;507
8854;507
8856;509
8858;514
8860;508
8862;509
8864;514
8866;510
8868;508
8870;511
8872;508
8874;511
8876;515
8878;510
8880;512
8882;514
8884;521
8886;520
8888;509
8890;514
8892;515
8894;521
8896;522
8898;515
8900;513
8902;510
8904;518
8906;516
8908;513
8910;516
8912;518
8914;518
8916;519
8918;513
8920;522
8922;514
8924;518
8926;514
8928;516
8930;523
8932;519
8934;518
8936;519
8938;518
8940;522
8942;516
8944;517
8946;523
8948;530
8950;531
8952;524
8954;523
8956;522
8958;531
8960;528
8962;522
8964;522
8966;525
8968;530
8970;527
8972;526
8974;535
8976;528
8978;530
8980;529
8982;529
8984;536
8986;530
8988;527
8990;527
8992;528
8994;531
8996;527
8998;525
9000;527
9002;528
9004;525
9006;524
9008;522
9010;522
9012;525
9014;525
9016;519
9018;514
9020;515
9022;513
9024;509
9026;508
9028;503
9030;502
9032;501
9034;498
9036;496
9038;492
9040;488
9042;488
9044;490
9046;487
9048;484
9050;483
9052;483
9054;481
9056;481
9058;482
9060;480
9062;483
9064;480
9066;478
9068;478
9070;481
9072;481
9074;483
9076;481
9078;485
9080;483
9082;496
9084;494
9086;492
9088;494
9090;493
9092;494
9094;495
9096;496
9098;491
9100;492
9102;495
9104;497
9106;495
9108;498
9110;499
9112;500
9114;499
9116;501
9118;499
9120;499
9122;498
9124;493
9126;494
9128;496
9130;498
9132;498
9134;500
9136;501
9138;503
9140;499
9142;500
9144;502
9146;501
9148;503
9150;500
9152;503
9154;500
9156;501
9158;503
9160;503
9162;503
9164;506
9166;505
9168;502
9170;503
9172;501
9174;506
9176;504
9178;504
9180;503
9182;502
9184;500
9186;499
9188;501
9190;502
9192;505
9194;503
9196;504
9198;505
9200;505
9202;504
9204;503
9206;504
9208;507
9210;505
9212;505
9214;505
9216;504
9218;503
9220;507
9222;507
9224;506
9226;508
9228;505
9230;505
9232;502
9234;503
9236;503
9238;501
9240;502
9242;502
9244;503
9246;503
9248;505
9250;505
9252;504
9254;502
9256;506
9258;505
9260;505
9262;502
9264;504
9266;505
9268;504
9270;502
9272;503
9274;501
9276;501
9278;503
9280;503
9282;503
9284;503
9286;504
9288;504
9290;502
9292;503
9294;505
9296;503
9298;503
9300;503
9302;502
9304;501
9306;507
9308;502
9310;502
9312;501
9314;503
9316;503
9318;504
9320;501
9322;502
9324;504
9326;504
9328;503
9330;503
9332;502
9334;501
9336;503
9338;502
9340;504
9342;505
9344;506
9346;502
9348;504
9350;503
9352;502
9354;505
9356;507
9358;507
9360;508
9362;503
9364;504
9366;505
9368;504
9370;503
9372;503
9374;503
9376;506
9378;504
9380;505
9382;504
9384;506
9386;505
9388;504
9390;503
9392;503
9394;502
9396;502
9398;505
9400;504
9402;503
9404;505
9406;503
9408;504
9410;505
9412;504
9414;505
9416;506
9418;506
9420;506
9422;505
9424;507
9426;506
9428;508
9430;508
9432;509
9434;510
9436;510
9438;508
9440;511
9442;509
9444;508
9446;508
9448;510
9450;510
9452;506
9454;508
9456;506
9458;506
9460;506
9462;505
9464;505
9466;504
9468;504
9470;506
9472;505
9474;506
9476;506
9478;505
9480;505
9482;503
9484;503
9486;502
9488;502
9490;497
9492;499
9494;502
9496;504
9498;507
9500;504
9502;505
9504;507
9506;507
9508;504
9510;503
9512;507
9514;503
9516;501
9518;502
9520;506
9522;506
9524;504
9526;504
9528;507
9530;508
9532;515
9534;520
9536;529
9538;542
9540;551
9542;569
9544;584
9546;602
9548;621
9550;634
9552;645
9554;644
9556;612
9558;590
9560;569
9562;537
9564;508
9566;485
9568;461
9570;441
9572;424
9574;424
9576;424
9578;430
9580;435
9582;439
9584;442
9586;447
9588;456
9590;463
9592;468
9594;475
9596;478
9598;482
9600;490
9602;491
9604;495
9606;501
9608;501
9610;501
9612;499
9614;500
9616;502
9618;501
9620;502
9622;504
9624;503
9626;507
9628;507
9630;507
9632;508
9634;507
9636;507
9638;505
9640;506
9642;505
9644;506
9646;507
9648;506
9650;506
9652;507
9654;507
9656;511
9658;508
9660;509
9662;510
9664;510
9666;508
9668;507
9670;506
9672;510
9674;511
9676;511
9678;510
9680;510
9682;510
9684;510
9686;509
9688;509
9690;509
9692;510
9694;511
9696;509
9698;513
9700;511
9702;515
9704;515
9706;512
9708;513
9710;513
9712;514
9714;514
9716;515
9718;514
9720;516
9722;515
9724;516
9726;517
9728;517
9730;519
9732;516
9734;517
9736;518
9738;518
9740;518
9742;518
9744;519
9746;521
9748;521
9750;522
9752;521
9754;522
9756;524
9758;524
9760;524
9762;525
9764;528
9766;526
9768;528
9770;528
9772;523
9774;527
9776;528
9778;530
9780;531
9782;530
9784;529
9786;531
9788;527
9790;527
9792;526
9794;526
9796;524
9798;525
9800;526
9802;525
9804;526
9806;525
9808;525
9810;521
9812;519
9814;519
9816;514
9818;513
9820;512
9822;510
9824;508
9826;506
9828;503
9830;501
9832;500
9834;497
9836;497
9838;493
9840;495
9842;494
9844;490
9846;489
9848;487
9850;488
9852;489
9854;484
9856;482
9858;483
9860;483
9862;484
9864;487
9866;484
9868;483
9870;483
9872;485
9874;484
9876;485
9878;485
9880;487
9882;487
9884;486
9886;486
9888;487
9890;489
9892;490
9894;489
9896;491
9898;488
9900;490
9902;493
9904;493
9906;493
9908;494
9910;495
9912;498
9914;494
9916;495
9918;496
9920;495
9922;496
9924;496
9926;495
9928;497
9930;501
9932;497
9934;498
9936;501
9938;499
9940;501
9942;499
9944;499
9946;499
9948;497
9950;496
9952;497
9954;499
9956;499
9958;501
9960;507
9962;507
9964;502
9966;502
9968;501
9970;501
9972;507
9974;504
9976;507
9978;505
9980;504
9982;510
9984;503
9986;504
9988;503
9990;505
9992;510
9994;504
9996;506
9998;508
10000;508
10002;509
10004;506
10006;511
10008;504
10010;503
10012;502
10014;503
10016;512
10018;504
10020;504
10022;506
10024;505
10026;511
10028;505
10030;506
10032;509
10034;506
10036;510
10038;505
10040;506
10042;514
10044;506
10046;503
10048;505
10050;504
10052;505
10054;505
10056;503
10058;507
10060;506
10062;508
10064;506
10066;505
10068;510
10070;507
10072;509
10074;505
10076;505
10078;506
10080;505
10082;509
10084;502
10086;503
10088;505
10090;503
10092;506
10094;502
10096;502
10098;503
10100;502
10102;505
10104;504
10106;504
10108;505
10110;504
10112;505
10114;501
10116;507
10118;511
10120;506
10122;505
10124;505
10126;505
10128;509
10130;505
10132;506
10134;506
10136;505
10138;511
10140;508
10142;505
10144;504
10146;506
10148;509
10150;504
10152;505
10154;504
10156;500
10158;507
10160;502
10162;505
10164;501
10166;506
10168;509
10170;503
10172;504
10174;503
10176;506
10178;508
10180;502
10182;506
10184;504
10186;506
10188;504
10190;501
10192;503
10194;505
10196;509
10198;504
10200;503
10202;505
10204;505
10206;509
10208;503
10210;505
10212;504
10214;501
10216;511
10218;506
10220;504
10222;504
10224;504
10226;506
10228;505
10230;503
10232;505
10234;504
10236;509
10238;507
10240;503
10242;502
10244;503
10246;508
10248;508
10250;507
10252;507
10254;508
10256;509
10258;504
10260;505
10262;512
10264;505
10266;507
10268;504
10270;504
10272;510
10274;503
10276;502
10278;505
10280;503
10282;509
10284;505
10286;505
10288;504
10290;509
10292;510
10294;506
10296;505
10298;505
10300;509
10302;511
10304;505
10306;506
10308;503
10310;512
10312;511
10314;507
10316;503
10318;506
10320;511
10322;507
10324;505
10326;505
10328;504
10330;511
10332;506
10334;508
10336;512
10338;511
10340;507
10342;506
10344;505
10346;512
10348;505
10350;513
10352;507
10354;506
10356;507
10358;507
10360;506
10362;507
10364;505
10366;511
10368;504
10370;505
10372;505
10374;505
10376;510
10378;504
10380;504
10382;503
10384;506
10386;509
10388;505
10390;504
10392;505
10394;503
10396;505
10398;501
10400;502
10402;502
10404;499
10406;502
10408;503
10410;506
10412;503
10414;502
10416;502
10418;505
10420;505
10422;502
10424;502
10426;501
10428;501
10430;503
10432;506
10434;511
10436;517
10438;524
10440;531
10442;571
10444;539
10446;506
10448;487
10450;462
10452;441
10454;433
10456;430
10458;429
10460;434
10462;438
10464;439
10466;443
10468;449
10470;457
10472;462
10474;467
10476;475
10478;479
10480;484
10482;490
10484;494
10486;496
10488;496
10490;497
10492;499
10494;497
10496;500
10498;500
10500;498
10502;497
10504;500
10506;498
10508;503
10510;505
10512;503
10514;502
10516;504
10518;504
10520;504
10522;502
10524;503
10526;503
10528;503
10530;503
10532;502
10534;504
10536;504
10538;503
10540;504
10542;502
10544;504
10546;506
10548;507
10550;506
10552;508
10554;507
10556;507
10558;508
10560;507
10562;507
10564;507
10566;507
10568;508
10570;508
10572;510
10574;511
10576;511
10578;514
10580;513
10582;510
10584;510
10586;510
10588;511
10590;509
10592;512
10594;509
10596;513
10598;514
10600;514
10602;511
10604;515
10606;516
10608;514
10610;515
10612;512
10614;513
10616;512
10618;514
10620;514
10622;516
10624;516
10626;517
10628;518
10630;518
10632;519
10634;518
10636;518
10638;523
10640;524
10642;526
10644;526
10646;523
10648;524
10650;525
10652;530
10654;528
10656;527
10658;525
10660;528
10662;529
10664;525
10666;525
10668;525
10670;527
10672;525
10674;525
10676;527
10678;525
10680;526
10682;525
10684;525
10686;523
10688;522
10690;523
10692;521
10694;520
10696;520
10698;515
10700;515
10702;513
10704;511
10706;508
10708;506
10710;503
10712;503
10714;501
10716;500
10718;498
10720;495
10722;493
10724;492
10726;491
10728;492
10730;489
10732;487
10734;487
10736;487
10738;487
10740;487
10742;488
10744;487
10746;485
10748;486
10750;484
10752;484
10754;485
10756;485
10758;484
10760;487
10762;482
10764;483
10766;485
10768;486
10770;485
10772;483
10774;487
10776;487
10778;487
10780;488
10782;489
10784;491
10786;492
10788;491
10790;494
10792;493
10794;490
10796;493
10798;492
10800;492
10802;493
10804;493
10806;494
10808;493
10810;494
10812;498
10814;495
10816;495
10818;494
10820;494
10822;497
10824;496
10826;496
10828;498
10830;502
10832;501
10834;502
10836;500
10838;500
10840;500
10842;500
10844;497
10846;500
10848;499
10850;497
10852;499
10854;499
10856;501
10858;499
10860;500
10862;502
10864;503
10866;501
10868;506
10870;502
10872;503
10874;502
10876;503
10878;501
10880;501
10882;503
10884;504
10886;503
10888;504
10890;507
10892;504
10894;506
10896;504
10898;506
10900;505
10902;508
10904;507
10906;508
10908;503
10910;505
10912;503
10914;504
10916;507
10918;506
10920;505
10922;504
10924;504
10926;504
10928;504
10930;505
10932;505
10934;504
10936;504
10938;505
10940;504
10942;503
10944;502
10946;503
10948;505
10950;502
10952;499
10954;501
10956;502
10958;506
10960;503
10962;503
10964;505
10966;503
10968;503
10970;504
10972;504
10974;502
10976;503
10978;504
10980;503
10982;505
10984;504
10986;507
10988;504
10990;503
10992;502
10994;503
10996;500
10998;502
11000;502
11002;502
11004;504
11006;508
11008;503
11010;504
11012;509
11014;505
11016;503
11018;506
11020;507
11022;505
11024;506
11026;503
11028;504
11030;503
11032;504
11034;503
11036;502
11038;501
11040;502
11042;501
11044;501
11046;502
11048;504
11050;505
11052;505
11054;504
11056;502
11058;501
11060;505
11062;504
11064;501
11066;506
11068;505
11070;504
11072;503
11074;505
11076;505
11078;506
11080;504
11082;506
11084;509
11086;507
11088;507
11090;505
11092;505
11094;504
11096;502
11098;505
11100;504
11102;504
11104;502
11106;501
11108;504
11110;501
11112;502
11114;503
11116;504
11118;506
11120;504
11122;505
11124;505
11126;507
11128;506
11130;503
11132;504
11134;504
11136;503
11138;503
11140;505
11142;504
11144;501
11146;504
11148;503
11150;504
11152;505
11154;506
11156;502
11158;502
11160;503
11162;506
11164;506
11166;505
11168;501
11170;506
11172;507
11174;505
11176;508
11178;506
11180;507
11182;506
11184;503
11186;503
11188;504
11190;505
11192;505
11194;505
11196;504
11198;507
11200;506
11202;505
11204;508
11206;503
11208;505
11210;504
11212;508
11214;507
11216;506
11218;507
11220;505
11222;506
11224;508
11226;507
11228;506
11230;506
11232;509
11234;508
11236;506
11238;505
11240;506
11242;506
11244;506
11246;505
11248;506
11250;507
11252;507
11254;509
11256;508
11258;509
11260;510
11262;506
11264;507
11266;507
11268;506
11270;506
11272;504
11274;504
11276;506
11278;507
11280;505
11282;504
11284;507
11286;505
11288;506
11290;503
11292;503
11294;503
11296;505
11298;504
11300;503
11302;501
11304;506
11306;505
11308;504
11310;502
11312;500
11314;502
11316;505
11318;502
11320;502
11322;502
11324;503
11326;505
11328;504
11330;504
11332;505
11334;505
11336;504
11338;504
11340;506
11342;505
11344;505
11346;504
11348;505
11350;506
11352;506
11354;504
11356;506
11358;508
11360;509
11362;515
11364;522
11366;528
11368;539
11370;548
11372;562
11374;580
11376;597
11378;617
11380;632
11382;642
11384;644
11386;618
11388;592
11390;573
11392;543
11394;515
11396;498
11398;468
11400;449
11402;434
11404;434
11406;435
11408;437
11410;444
11412;450
11414;447
11416;450
11418;458
11420;467
11422;473
11424;473
11426;477
11428;483
11430;495
11432;500
11434;495
11436;497
11438;496
11440;504
11442;504
11444;499
11446;501
11448;500
11450;506
11452;507
11454;505
11456;506
11458;508
11460;508
11462;514
11464;506
11466;507
11468;505
11470;505
11472;511
11474;504
11476;503
11478;502
11480;509
11482;509
11484;506
11486;506
11488;506
11490;502
11492;504
11494;507
11496;513
11498;508
11500;509
11502;508
11504;508
11506;516
11508;509
11510;510
11512;508
11514;509
11516;518
11518;511
11520;510
11522;509
11524;511
11526;514
11528;509
11530;511
11532;512
11534;513
11536;516
11538;513
11540;513
11542;511
11544;515
11546;516
11548;512
11550;513
11552;514
11554;515
11556;516
11558;512
11560;514
11562;514
11564;518
11566;522
11568;517
11570;518
11572;518
11574;523
11576;524
11578;522
11580;522
11582;523
11584;529
11586;528
11588;522
11590;519
11592;520
11594;520
11596;528
11598;521
11600;521
11602;521
11604;526
11606;532
11608;524
11610;524
11612;526
11614;526
11616;535
11618;525
11620;527
11622;526
11624;527
11626;533
11628;524
11630;523
11632;523
11634;520
11636;519
11638;517
11640;521
11642;520
11644;525
11646;525
11648;514
11650;513
11652;513
11654;517
11656;515
11658;509
11660;505
11662;505
11664;511
11666;507
11668;501
11670;497
11672;494
11674;493
11676;493
11678;488
11680;486
11682;486
11684;485
11686;488
11688;482
11690;481
11692;483
11694;487
11696;485
11698;483
11700;485
11702;484
11704;489
11706;488
11708;487
11710;485
11712;488
11714;490
11716;488
11718;488
11720;488
11722;488
11724;489
11726;486
11728;489
11730;494
11732;489
11734;490
11736;491
11738;488
11740;495
11742;490
11744;489
11746;492
11748;495
11750;500
11752;493
11754;494
11756;491
11758;499
11760;499
11762;497
11764;494
11766;494
11768;500
11770;500
11772;494
11774;497
11776;498
11778;501
11780;498
11782;499
11784;506
11786;504
11788;503
11790;498
11792;500
11794;503
11796;500
11798;498
11800;499
11802;500
11804;504
11806;499
11808;498
11810;502
11812;499
11814;503
11816;501
11818;502
11820;502
11822;508
11824;508
11826;504
11828;504
11830;503
11832;504
11834;503
11836;507
11838;504
11840;502
11842;505
11844;504
11846;503
11848;506
11850;506
11852;504
11854;503
11856;503
11858;504
11860;505
11862;504
11864;502
11866;503
11868;504
11870;503
11872;504
11874;500
11876;503
11878;502
11880;500
11882;500
11884;501
11886;500
11888;500
11890;499
11892;499
11894;502
11896;501
11898;503
11900;499
11902;501
11904;502
11906;501
11908;501
11910;503
11912;502
11914;502
11916;501
11918;501
11920;500
11922;502
11924;501
11926;501
11928;506
11930;508
11932;504
11934;505
11936;503
11938;505
11940;503
11942;505
11944;504
11946;502
11948;504
11950;502
11952;501
11954;504
11956;504
11958;504
11960;503
11962;502
11964;503
11966;501
11968;499
11970;501
11972;503
11974;506
11976;506
11978;505
11980;505
11982;504
11984;505
11986;501
11988;502
11990;503
11992;502
11994;504
11996;503
11998;503
12000;501
12002;504
12004;502
12006;502
12008;504
12010;503
12012;504
12014;501
12016;501
12018;500
12020;501
12022;500
12024;500
12026;502
12028;505
12030;505
12032;504
12034;505
12036;505
12038;504
12040;505
12042;505
12044;505
12046;501
12048;503
12050;502
12052;502
12054;504
12056;503
12058;505
12060;506
12062;502
12064;507
12066;503
12068;504
12070;503
12072;504
12074;505
12076;502
12078;500
12080;500
12082;501
12084;502
12086;502
12088;503
12090;505
12092;504
12094;505
12096;505
12098;506
12100;507
12102;504
12104;504
12106;502
12108;507
12110;507
12112;504
12114;502
12116;504
12118;506
12120;511
12122;508
12124;507
12126;505
12128;508
12130;511
12132;506
12134;505
12136;507
12138;508
12140;510
12142;509
12144;510
12146;508
12148;508
12150;508
12152;506
12154;507
12156;505
12158;503
12160;503
12162;505
12164;505
12166;504
12168;505
12170;510
12172;509
12174;508
12176;506
12178;506
12180;503
12182;502
12184;505
12186;505
12188;503
12190;504
12192;508
12194;506
12196;502
12198;503
12200;505
12202;500
12204;501
12206;500
12208;504
12210;505
12212;502
12214;503
12216;503
12218;504
12220;503
12222;504
12224;504
12226;508
12228;505
12230;506
12232;506
12234;507
12236;505
12238;505
12240;506
12242;505
12244;505
12246;504
12248;505
12250;504
12252;509
12254;509
12256;510
12258;518
12260;527
12262;536
12264;548
12266;561
12268;576
12270;590
12272;605
12274;620
12276;632
12278;635
12280;615
12282;589
12284;569
12286;542
12288;513
12290;496
12292;478
12294;457
12296;444
12298;436
12300;436
12302;433
12304;431
12306;439
12308;441
12310;449
12312;452
12314;457
12316;464
12318;467
12320;477
12322;480
12324;484
12326;491
12328;495
12330;499
12332;500
12334;502
12336;501
12338;500
12340;498
12342;503
12344;504
12346;501
12348;500
12350;502
12352;504
12354;506
12356;509
12358;508
12360;506
12362;506
12364;504
12366;507
12368;507
12370;508
12372;506
12374;507
12376;510
12378;509
12380;506
12382;506
12384;505
12386;505
12388;509
12390;511
12392;509
12394;508
12396;505
12398;506
12400;505
12402;506
12404;508
12406;508
12408;510
12410;512
12412;513
12414;510
12416;511
12418;509
12420;512
12422;514
12424;513
12426;511
12428;511
12430;511
12432;511
12434;510
12436;510
12438;509
12440;512
12442;511
12444;513
12446;516
12448;513
12450;515
12452;514
12454;517
12456;515
12458;516
12460;516
12462;514
12464;513
12466;520
12468;520
12470;522
12472;523
12474;520
12476;522
12478;526
12480;523
12482;526
12484;523
12486;522
12488;524
12490;526
12492;524
12494;526
12496;525
12498;524
12500;525
12502;526
12504;525
12506;526
12508;525
12510;526
12512;527
12514;528
12516;527
12518;526
12520;526
12522;528
12524;527
12526;522
12528;524
12530;519
12532;520
12534;518
12536;519
12538;518
12540;516
12542;517
12544;514
12546;512
12548;508
12550;506
12552;507
12554;504
12556;505
12558;500
12560;498
12562;497
12564;493
12566;491
12568;488
12570;486
12572;489
12574;489
12576;485
12578;485
12580;484
12582;485
12584;483
12586;485
12588;481
12590;483
12592;481
12594;482
12596;483
12598;481
12600;481
12602;482
12604;485
12606;485
12608;486
12610;488
12612;485
12614;490
12616;485
12618;487
12620;485
12622;488
12624;489
12626;492
12628;490
12630;491
12632;490
12634;490
12636;491
12638;491
12640;493
12642;493
12644;490
12646;495
12648;495
12650;495
12652;497
12654;497
12656;496
12658;498
12660;497
12662;499
12664;498
12666;500
12668;498
12670;499
12672;500
12674;500
12676;502
12678;503
12680;502
12682;504
12684;502
12686;500
12688;499
12690;500
12692;503
12694;504
12696;501
12698;502
12700;499
12702;501
12704;501
12706;502
12708;500
12710;501
12712;502
12714;504
12716;505
12718;503
12720;503
12722;503
12724;505
12726;506
12728;505
12730;505
12732;504
12734;508
12736;507
12738;505
12740;509
12742;508
12744;510
12746;506
12748;501
12750;503
12752;505
12754;505
12756;502
12758;504
12760;503
12762;501
12764;505
12766;505
12768;505
12770;506
12772;503
12774;502
12776;503
12778;501
12780;506
12782;506
12784;505
12786;507
12788;505
12790;505
12792;506
12794;508
12796;506
12798;505
12800;508
12802;508
12804;505
12806;505
12808;507
12810;505
12812;505
12814;506
12816;506
12818;508
12820;505
12822;502
12824;501
12826;501
12828;503
12830;505
12832;507
12834;513
12836;512
12838;501
12840;502
12842;504
12844;506
12846;507
12848;504
12850;503
12852;503
12854;502
12856;504
12858;504
12860;505
12862;503
12864;503
12866;514
12868;506
12870;505
12872;504
12874;506
12876;513
12878;505
12880;506
12882;506
12884;507
12886;511
12888;506
12890;508
12892;507
12894;509
12896;512
12898;504
12900;505
12902;507
12904;505
12906;513
12908;509
12910;512
12912;502
12914;504
12916;506
12918;502
12920;506
12922;505
12924;503
12926;503
12928;514
12930;505
12932;507
12934;508
12936;510
12938;511
12940;507
12942;509
12944;509
12946;513
12948;505
12950;503
12952;507
12954;509
12956;513
12958;505
12960;501
12962;503
12964;502
12966;508
12968;504
12970;506
12972;504
12974;506
12976;503
12978;507
12980;507
12982;509
12984;503
12986;507
12988;505
12990;506
12992;506
12994;506
12996;511
12998;507
13000;508
13002;509
13004;507
13006;509
13008;505
13010;505
13012;510
13014;506
13016;504
13018;505
13020;507
13022;506
13024;507
13026;506
13028;504
13030;509
13032;507
13034;505
13036;503
13038;503
13040;506
13042;505
13044;503
13046;503
13048;504
13050;506
13052;500
13054;501
13056;500
13058;502
13060;507
13062;500
13064;502
13066;502
13068;500
13070;508
13072;503
13074;506
13076;504
13078;502
13080;505
13082;504
13084;504
13086;507
13088;507
13090;511
13092;506
13094;505
13096;512
13098;507
13100;508
13102;508
13104;516
13106;527
13108;532
13110;543
13112;553
13114;569
13116;585
13118;599
13120;613
13122;629
13124;649
13126;643
13128;603
13130;576
13132;557
13134;533
13136;508
13138;482
13140;459
13142;441
13144;437
13146;436
13148;433
13150;431
13152;435
13154;441
13156;441
13158;447
13160;457
13162;462
13164;465
13166;469
13168;475
13170;487
13172;487
13174;492
13176;494
13178;499
13180;507
13182;502
13184;502
13186;504
13188;503
13190;503
13192;500
13194;501
13196;502
13198;507
13200;507
13202;507
13204;509
13206;505
13208;506
13210;505
13212;508
13214;510
13216;505
13218;506
13220;507
13222;513
13224;507
13226;508
13228;511
13230;510
13232;508
13234;507
13236;508
13238;513
13240;505
13242;505
13244;507
13246;508
13248;514
13250;512
13252;510
13254;511
13256;515
13258;510
13260;509
13262;507
13264;508
13266;508
13268;506
13270;512
13272;510
13274;510
13276;509
13278;510
13280;510
13282;511
13284;512
13286;515
13288;515
13290;514
13292;512
13294;515
13296;514
13298;514
13300;514
13302;513
13304;515
13306;520
13308;517
13310;525
13312;527
13314;526
13316;526
13318;528
13320;530
13322;527
13324;527
13326;526
13328;525
13330;524
13332;523
13334;524
13336;522
13338;522
13340;521
13342;521
13344;522
13346;522
13348;521
13350;518
13352;515
13354;513
13356;511
13358;508
13360;509
13362;502
13364;501
13366;500
13368;498
13370;496
13372;493
13374;495
13376;493
13378;493
13380;489
13382;487
13384;486
13386;482
13388;483
13390;482
13392;483
13394;481
13396;480
13398;480
13400;480
13402;482
13404;480
13406;480
13408;482
13410;482
13412;481
13414;482
13416;484
13418;486
13420;482
13422;482
13424;485
13426;482
13428;482
13430;484
13432;485
13434;486
13436;485
13438;489
13440;490
13442;489
13444;489
13446;491
13448;491
13450;488
13452;488
13454;492
13456;494
13458;493
13460;493
13462;497
13464;495
13466;494
13468;492
13470;493
13472;493
13474;492
13476;493
13478;496
13480;499
13482;500
13484;497
13486;499
13488;499
13490;497
13492;500
13494;499
13496;498
13498;498
13500;499
13502;498
13504;501
13506;500
13508;499
13510;500
13512;499
13514;500
13516;500
13518;499
13520;498
13522;500
13524;501
13526;507
13528;504
13530;507
13532;506
13534;505
13536;505
13538;506
13540;501
13542;501
13544;504
13546;503
13548;504
13550;506
13552;503
13554;506
13556;506
13558;505
13560;505
13562;503
13564;506
13566;507
13568;506
13570;506
13572;505
13574;506
13576;501
13578;504
13580;502
13582;502
13584;505
13586;506
13588;506
13590;505
13592;506
13594;505
13596;504
13598;506
13600;506
13602;507
13604;505
13606;504
13608;503
13610;502
13612;505
13614;502
13616;503
13618;504
13620;504
13622;503
13624;504
13626;504
13628;501
13630;503
13632;503
13634;504
13636;504
13638;502
13640;505
13642;503
13644;507
13646;504
13648;507
13650;505
13652;504
13654;506
13656;505
13658;504
13660;504
13662;505
13664;503
13666;504
13668;503
13670;503
13672;505
13674;502
13676;505
13678;505
13680;506
13682;503
13684;507
13686;505
13688;506
13690;505
13692;503
13694;503
13696;503
13698;505
13700;506
13702;505
13704;505
13706;505
13708;505
13710;503
13712;504
13714;502
13716;503
13718;506
13720;504
13722;504
13724;505
13726;502
13728;503
13730;505
13732;507
13734;504
13736;504
13738;505
13740;508
13742;506
13744;506
13746;508
13748;505
13750;506
13752;506
13754;508
13756;505
13758;505
13760;504
13762;502
13764;503
13766;502
13768;503
13770;505
13772;509
13774;505
13776;506
13778;507
13780;507
13782;506
13784;507
13786;505
13788;506
13790;506
13792;509
13794;505
13796;506
13798;507
13800;505
13802;505
13804;506
13806;507
13808;507
13810;507
13812;507
13814;508
13816;508
13818;508
13820;506
13822;510
13824;509
13826;513
13828;511
13830;509
13832;509
13834;509
13836;509
13838;508
13840;508
13842;509
13844;510
13846;509
13848;508
13850;506
13852;505
13854;503
13856;502
13858;504
13860;501
13862;503
13864;503
13866;505
13868;506
13870;505
13872;508
13874;506
13876;503
13878;505
13880;502
13882;502
13884;501
13886;505
13888;504
13890;502
13892;502
13894;504
13896;506
13898;506
13900;505
13902;506
13904;504
13906;504
13908;506
13910;507
13912;510
13914;508
13916;506
13918;508
13920;509
13922;508
13924;509
13926;509
13928;509
13930;512
13932;518
13934;527
13936;538
13938;547
13940;561
13942;577
13944;597
13946;618
13948;637
13950;650
13952;654
13954;636
13956;605
13958;584
13960;551
13962;516
13964;493
13966;467
13968;442
13970;431
13972;428
13974;425
13976;430
13978;436
13980;443
13982;443
13984;452
13986;457
13988;460
13990;466
13992;474
13994;480
13996;486
13998;488
14000;493
14002;495
14004;496
14006;497
14008;498
14010;499
14012;501
14014;498
14016;498
14018;501
14020;503
14022;503
14024;504
14026;504
14028;503
14030;502
14032;505
14034;507
14036;505
14038;505
14040;505
14042;505
14044;503
14046;503
14048;505
14050;504
14052;505
14054;508
14056;509
14058;510
14060;509
14062;507
14064;507
14066;508
14068;507
14070;509
14072;510
14074;509
14076;507
14078;509
14080;508
14082;507
14084;507
14086;509
14088;510
14090;509
14092;511
14094;511
14096;511
14098;508
14100;510
14102;510
14104;512
14106;512
14108;513
14110;515
14112;514
14114;513
14116;516
14118;511
14120;513
14122;515
14124;515
14126;517
14128;517
14130;516
14132;518
14134;519
14136;521
14138;520
14140;519
14142;521
14144;521
14146;520
14148;519
14150;517
14152;521
14154;522
14156;524
14158;527
14160;527
14162;525
14164;523
14166;526
14168;524
14170;527
14172;527
14174;526
14176;525
14178;526
14180;528
14182;525
14184;526
14186;527
14188;526
14190;527
14192;526
14194;526
14196;528
14198;526
14200;525
14202;524
14204;526
14206;526
14208;525
14210;523
14212;522
14214;520
14216;516
14218;511
14220;514
14222;512
14224;511
14226;508
14228;504
14230;502
14232;499
14234;498
14236;495
14238;494
14240;494
14242;492
14244;491
14246;490
14248;494
14250;497
14252;488
14254;488
14256;484
14258;482
14260;484
14262;483
14264;490
14266;490
14268;485
14270;485
14272;485
14274;487
14276;492
14278;487
14280;486
14282;483
14284;485
14286;492
14288;490
14290;495
14292;490
14294;492
14296;494
14298;492
14300;499
14302;493
14304;493
14306;490
14308;494
14310;502
14312;504
14314;496
14316;498
14318;495
14320;502
14322;499
14324;496
14326;496
14328;494
14330;496
14332;499
14334;498
14336;499
14338;499
14340;499
14342;499
14344;501
14346;500
14348;506
14350;501
14352;498
14354;502
14356;499
14358;506
14360;498
14362;501
14364;500
14366;501
14368;505
14370;503
14372;503
14374;504
14376;503
14378;514
14380;507
14382;501
14384;505
14386;502
14388;509
14390;511
14392;505
14394;504
14396;509
14398;510
14400;508
14402;503
14404;506
14406;506
14408;510
14410;507
14412;502
14414;506
14416;506
14418;506
14420;506
14422;505
14424;505
14426;506
14428;510
14430;511
14432;508
14434;506
14436;505
14438;511
14440;508
14442;506
14444;505
14446;505
14448;510
14450;512
14452;503
14454;505
14456;506
14458;511
14460;511
14462;506
14464;507
14466;505
14468;514
14470;509
14472;501
14474;502
14476;501
14478;509
14480;508
14482;504
14484;503
14486;503
14488;508
14490;510
14492;505
14494;506
14496;504
14498;506
14500;507
14502;505
14504;505
14506;504
14508;505
14510;507
14512;504
14514;502
14516;505
14518;507
14520;511
14522;503
14524;504
14526;506
14528;508
14530;509
14532;504
14534;505
14536;503
14538;505
14540;503
14542;502
14544;507
14546;504
14548;509
14550;504
14552;504
14554;510
14556;504
14558;512
14560;501
14562;502
14564;507
14566;505
14568;503
14570;502
14572;507
14574;508
14576;504
14578;503
14580;504
14582;505
14584;508
14586;504
14588;506
14590;506
14592;505
14594;511
14596;503
14598;504
14600;504
14602;504
14604;508
14606;504
14608;506
14610;505
14612;508
14614;506
14616;506
14618;504
14620;507
14622;503
14624;507
14626;502
14628;506
14630;504
14632;508
14634;505
14636;505
14638;504
14640;504
14642;511
14644;509
14646;505
14648;505
14650;503
14652;506
14654;505
14656;504
14658;503
14660;503
14662;506
14664;506
14666;505
14668;505
14670;505
14672;512
14674;511
14676;506
14678;505
14680;510
14682;506
14684;505
14686;503
14688;504
14690;503
14692;506
14694;507
14696;508
14698;509
14700;505
14702;506
14704;507
14706;506
14708;507
14710;508
14712;508
14714;507
14716;504
14718;504
14720;503
14722;506
14724;502
14726;507
14728;508
14730;502
14732;501
14734;503
14736;502
14738;503
14740;502
14742;503
14744;501
14746;503
14748;503
14750;501
14752;502
14754;498
14756;501
14758;500
14760;500
14762;500
14764;500
14766;502
14768;503
14770;506
14772;502
14774;502
14776;501
14778;502
14780;503
14782;504
14784;505
14786;503
14788;504
14790;505
14792;505
14794;507
14796;511
14798;512
14800;518
14802;522
14804;533
14806;539
14808;551
14810;567
14812;584
14814;606
14816;624
14818;641
14820;652
14822;641
14824;606
14826;585
14828;563
14830;528
14832;499
14834;477
14836;452
14838;433
14840;428
14842;426
14844;429
14846;435
14848;439
14850;444
14852;452
14854;453
14856;459
14858;463
14860;469
14862;475
14864;482
14866;487
14868;491
14870;493
14872;495
14874;496
14876;499
14878;498
14880;499
14882;500
14884;500
14886;501
14888;501
14890;502
14892;500
14894;502
14896;499
14898;503
14900;504
14902;505
14904;504
14906;504
14908;503
14910;503
14912;505
14914;503
14916;503
14918;503
14920;505
14922;504
14924;504
14926;507
14928;506
14930;507
14932;509
14934;508
14936;506
14938;508
14940;508
14942;507
14944;508
14946;506
14948;508
14950;508
14952;508
14954;510
14956;510
14958;506
14960;509
14962;510
14964;509
14966;509
14968;510
14970;510
14972;509
14974;510
14976;510
14978;511
14980;511
14982;513
14984;511
14986;513
14988;515
14990;514
14992;513
14994;515
14996;515
14998;514
15000;515
15002;518
15004;516
15006;516
15008;516
15010;518
15012;518
15014;518
15016;516
15018;518
15020;518
15022;521
15024;520
15026;522
15028;524
15030;523
15032;522
15034;522
15036;524
15038;528
15040;525
15042;526
15044;529
15046;527
15048;528
15050;527
15052;525
15054;526
15056;527
15058;527
15060;526
15062;525
15064;523
15066;525
15068;524
15070;526
15072;525
15074;522
15076;521
15078;520
15080;519
15082;518
15084;516
15086;515
15088;511
15090;512
15092;507
15094;508
15096;506
15098;502
15100;501
15102;497
15104;498
15106;496
15108;497
15110;493
15112;490
15114;490
15116;488
15118;488
15120;485
15122;484
15124;486
15126;484
15128;483
15130;486
15132;487
15134;485
15136;484
15138;486
15140;483
15142;481
15144;481
15146;484
15148;484
15150;483
15152;482
15154;483
15156;486
15158;484
15160;487
15162;486
15164;488
15166;491
15168;489
15170;489
15172;488
15174;490
15176;491
15178;491
15180;491
15182;493
15184;493
15186;496
15188;496
15190;499
15192;497
15194;495
15196;497
15198;498
15200;496
15202;495
15204;497
15206;497
15208;498
15210;497
15212;500
15214;502
15216;501
15218;503
15220;496
15222;498
15224;497
15226;498
15228;501
15230;502
15232;505
15234;503
15236;502
15238;501
15240;500
15242;498
15244;498
15246;508
15248;501
15250;503
15252;502
15254;504
15256;503
15258;503
15260;501
15262;502
15264;506
15266;504
15268;504
15270;506
15272;505
15274;503
15276;501
15278;501
15280;503
15282;506
15284;505
15286;503
15288;503
15290;503
15292;505
15294;508
15296;509
15298;507
15300;507
15302;505
15304;504
15306;509
15308;506
15310;507
15312;507
15314;508
15316;506
15318;507
15320;506
15322;505
15324;505
15326;505
15328;504
15330;504
15332;503
15334;503
15336;508
15338;503
15340;506
15342;506
15344;505
15346;504
15348;505
15350;502
15352;503
15354;505
15356;504
15358;503
15360;504
15362;505
15364;506
15366;506
15368;504
15370;501
15372;505
15374;502
15376;502
15378;503
15380;504
15382;504
15384;503
15386;504
15388;504
15390;503
15392;502
15394;503
15396;506
15398;505
15400;505
15402;505
15404;504
15406;501
15408;504
15410;503
15412;504
15414;503
15416;505
15418;505
15420;506
15422;505
15424;505
15426;506
15428;505
15430;504
15432;506
15434;506
15436;507
15438;506
15440;505
15442;505
15444;505
15446;505
15448;506
15450;503
15452;503
15454;503
15456;502
15458;502
15460;503
15462;505
15464;503
15466;503
15468;499
15470;502
15472;503
15474;503
15476;504
15478;506
15480;506
15482;505
15484;507
15486;506
15488;504
15490;505
15492;505
15494;505
15496;508
15498;506
15500;504
15502;503
15504;502
15506;503
15508;504
15510;505
15512;503
15514;503
15516;503
15518;506
15520;508
15522;507
15524;505
15526;503
15528;503
15530;504
15532;508
15534;515
15536;509
15538;509
15540;510
15542;508
15544;506
15546;506
15548;505
15550;505
15552;505
15554;504
15556;506
15558;506
15560;506
15562;508
15564;506
15566;504
15568;503
15570;505
15572;504
15574;506
15576;506
15578;504
15580;503
15582;504
15584;503
15586;504
15588;508
15590;505
15592;508
15594;509
15596;509
15598;509
15600;508
15602;510
15604;510
15606;508
15608;507
15610;507
15612;511
15614;506
15616;507
15618;510
15620;512
15622;514
15624;510
15626;506
15628;506
15630;504
15632;506
15634;506
15636;509
15638;508
15640;508
15642;506
15644;507
15646;501
15648;506
15650;508
15652;507
15654;508
15656;507
15658;504
15660;504
15662;501
15664;505
15666;504
15668;505
15670;504
15672;509
15674;503
15676;506
15678;506
15680;506
15682;511
15684;507
15686;512
15688;508
15690;509
15692;509
15694;508
15696;522
15698;509
15700;506
15702;508
15704;509
15706;509
15708;509
15710;504
15712;509
15714;515
15716;530
15718;536
15720;542
15722;552
15724;562
15726;587
15728;604
15730;616
15732;631
15734;642
15736;647
15738;619
15740;589
15742;569
15744;538
15746;515
15748;493
15750;468
15752;450
15754;435
15756;435
15758;438
15760;434
15762;438
15764;440
15766;452
15768;455
15770;457
15772;464
15774;470
15776;482
15778;481
15780;482
15782;486
15784;491
15786;500
15788;500
15790;499
15792;499
15794;500
15796;500
15798;505
15800;501
15802;500
15804;498
15806;498
15808;503
15810;500
15812;503
15814;502
15816;502
15818;506
15820;502
15822;509
15824;504
15826;506
15828;507
15830;506
15832;510
15834;507
15836;507
15838;506
15840;506
15842;515
15844;505
15846;505
15848;507
15850;507
15852;515
15854;510
15856;511
15858;510
15860;507
15862;509
15864;507
15866;506
15868;508
15870;508
15872;509
15874;515
15876;513
15878;509
15880;508
15882;514
15884;516
15886;511
15888;509
15890;509
15892;518
15894;518
15896;513
15898;514
15900;513
15902;517
15904;520
15906;516
15908;515
15910;515
15912;520
15914;521
15916;515
15918;517
15920;519
15922;522
15924;523
15926;519
15928;520
15930;520
15932;526
15934;524
15936;520
15938;521
15940;524
15942;530
15944;533
15946;527
15948;526
15950;527
15952;533
15954;528
15956;527
15958;525
15960;526
15962;526
15964;531
15966;527
15968;524
15970;525
15972;530
15974;524
15976;524
15978;527
15980;524
15982;522
15984;521
15986;519
15988;523
15990;521
15992;519
15994;524
15996;516
15998;515
16000;513
16002;507
16004;508
16006;507
16008;505
16010;505
16012;502
16014;502
16016;495
16018;496
16020;493
16022;496
16024;493
16026;489
16028;490
16030;485
16032;486
16034;481
16036;483
16038;484
16040;484
16042;486
16044;485
16046;484
16048;480
16050;482
16052;484
16054;485
16056;484
16058;484
16060;482
16062;480
16064;481
16066;482
16068;483
16070;482
16072;486
16074;488
16076;489
16078;489
16080;488
16082;490
16084;490
16086;489
16088;493
16090;488
16092;493
16094;493
16096;495
16098;493
16100;494
16102;493
16104;492
16106;493
16108;491
16110;492
16112;490
16114;491
16116;490
16118;490
16120;492
16122;493
16124;493
16126;497
16128;495
16130;499
16132;497
16134;497
16136;497
16138;497
16140;496
16142;498
16144;498
16146;500
16148;500
16150;496
16152;497
16154;502
16156;501
16158;503
16160;503
16162;503
16164;505
16166;505
16168;503
16170;504
16172;503
16174;502
16176;502
16178;503
16180;504
16182;502
16184;503
16186;504
16188;504
16190;505
16192;503
16194;502
16196;504
16198;503
16200;503
16202;503
16204;505
16206;504
16208;504
16210;505
16212;504
16214;503
16216;505
16218;503
16220;503
16222;506
16224;505
16226;504
16228;503
16230;505
16232;502
16234;505
16236;505
16238;505
16240;507
16242;507
16244;504
16246;504
16248;500
16250;502
16252;502
16254;504
16256;506
16258;505
16260;507
16262;507
16264;505
16266;503
16268;504
16270;504
16272;501
16274;501
16276;501
16278;502
16280;502
16282;502
16284;503
16286;502
16288;501
16290;500
16292;499
16294;499
16296;500
16298;501
16300;502
16302;504
16304;502
16306;502
16308;504
16310;503
16312;503
16314;500
16316;502
16318;503
16320;504
16322;502
16324;504
16326;504
16328;506
16330;505
16332;504
16334;505
16336;502
16338;502
16340;502
16342;506
16344;505
16346;505
16348;501
16350;501
16352;501
16354;501
16356;504
16358;502
16360;502
16362;501
16364;500
16366;503
16368;502
16370;502
16372;503
16374;500
16376;505
16378;505
16380;503
16382;505
16384;503
16386;503
16388;504
16390;503
16392;504
16394;503
16396;501
16398;505
16400;506
16402;506
16404;505
16406;508
16408;508
16410;509
16412;505
16414;505
16416;505
16418;502
16420;505
16422;502
16424;506
16426;507
16428;503
16430;503
16432;506
16434;502
16436;501
16438;501
16440;506
16442;506
16444;505
16446;504
16448;502
16450;505
16452;503
16454;504
16456;503
16458;506
16460;505
16462;505
16464;504
16466;506
16468;508
16470;507
16472;506
16474;505
16476;505
16478;506
16480;505
16482;506
16484;509
16486;509
16488;509
16490;508
16492;507
16494;506
16496;507
16498;507
16500;505
16502;504
16504;509
16506;506
16508;505
16510;508
16512;505
16514;503
16516;502
16518;503
16520;503
16522;503
16524;508
16526;504
16528;503
16530;501
16532;501
16534;500
16536;503
16538;504
16540;502
16542;501
16544;505
16546;505
16548;506
16550;504
16552;508
16554;504
16556;504
16558;506
16560;504
16562;507
16564;505
16566;506
16568;504
16570;503
16572;504
16574;507
16576;506
16578;514
16580;511
16582;516
16584;523
16586;531
16588;541
16590;550
16592;561
16594;576
16596;589
16598;605
16600;622
16602;637
16604;641
16606;621
16608;589
16610;566
16612;541
16614;510
16616;492
16618;474
16620;450
16622;440
16624;436
16626;438
16628;432
16630;431
16632;439
16634;440
16636;444
16638;451
16640;457
16642;465
16644;469
16646;477
16648;479
16650;483
16652;487
16654;493
16656;495
16658;498
16660;496
16662;500
16664;501
16666;501
16668;501
16670;502
16672;504
16674;503
16676;504
16678;503
16680;503
16682;504
16684;504
16686;506
16688;506
16690;508
16692;507
16694;506
16696;505
16698;506
16700;507
16702;509
16704;513
16706;508
16708;505
16710;506
16712;508
16714;509
16716;512
16718;507
16720;511
16722;513
16724;512
16726;510
16728;508
16730;508
16732;507
16734;508
16736;506
16738;509
16740;511
16742;508
16744;509
16746;510
16748;510
16750;512
16752;511
16754;511
16756;509
16758;511
16760;508
16762;511
16764;512
16766;514
16768;514
16770;514
16772;517
16774;519
16776;517
16778;515
16780;517
16782;516
16784;513
16786;515
16788;518
16790;520
16792;522
16794;522
16796;522
16798;521
16800;520
16802;520
16804;525
16806;521
16808;521
16810;521
16812;526
16814;527
16816;526
16818;526
16820;525
16822;528
16824;528
16826;530
16828;527
16830;526
16832;529
16834;528
16836;526
16838;527
16840;529
16842;528
16844;526
16846;526
16848;528
16850;528
16852;528
16854;528
16856;522
16858;524
16860;521
16862;519
16864;518
16866;517
16868;513
16870;511
16872;509
16874;507
16876;506
16878;505
16880;502
16882;499
16884;499
16886;499
16888;495
16890;492
16892;490
16894;487
16896;485
16898;485
16900;485
16902;485
16904;482
16906;482
16908;485
16910;483
16912;480
16914;483
16916;482
16918;481
16920;480
16922;484
16924;482
16926;481
16928;481
16930;483
16932;482
16934;484
16936;483
16938;484
16940;487
16942;485
16944;486
16946;488
16948;488
16950;487
16952;487
16954;488
16956;493
16958;492
16960;491
16962;492
16964;491
16966;489
16968;490
16970;492
16972;494
16974;494
16976;496
16978;496
16980;495
16982;497
16984;494
16986;498
16988;494
16990;498
16992;496
16994;495
16996;497
16998;498
17000;499
17002;498
17004;503
17006;499
17008;499
17010;499
17012;499
17014;500
17016;500
17018;500
17020;501
17022;499
17024;500
17026;500
17028;503
17030;501
17032;501
17034;501
17036;502
17038;501
17040;501
17042;502
17044;504
17046;505
17048;505
17050;505
17052;502
17054;504
17056;504
17058;503
17060;503
17062;504
17064;506
17066;506
17068;506
17070;506
17072;506
17074;505
17076;503
17078;506
17080;508
17082;507
17084;506
17086;508
17088;509
17090;508
17092;507
17094;506
17096;504
17098;504
17100;506
17102;507
17104;504
17106;503
17108;504
17110;504
17112;506
17114;511
17116;513
17118;508
17120;507
17122;506
17124;500
17126;504
17128;502
17130;509
17132;504
17134;505
17136;507
17138;507
17140;511
17142;508
17144;503
17146;504
17148;505
17150;507
17152;506
17154;505
17156;508
17158;507
17160;508
17162;505
17164;510
17166;506
17168;505
17170;505
17172;504
17174;506
17176;505
17178;502
17180;501
17182;503
17184;510
17186;505
17188;505
17190;505
17192;507
17194;514
17196;504
17198;505
17200;507
17202;506
17204;506
17206;505
17208;505
17210;505
17212;506
17214;505
17216;503
17218;509
17220;504
17222;503
17224;504
17226;508
17228;510
17230;507
17232;508
17234;507
17236;505
17238;512
17240;505
17242;503
17244;503
17246;506
17248;509
17250;503
17252;502
17254;506
17256;510
17258;512
17260;506
17262;505
17264;505
17266;510
17268;512
17270;506
17272;506
17274;504
17276;513
17278;513
17280;506
17282;505
17284;505
17286;512
17288;510
17290;505
17292;504
17294;507
17296;515
17298;507
17300;508
17302;511
17304;507
17306;512
17308;509
17310;509
17312;517
17314;509
17316;508
17318;508
17320;513
17322;513
17324;508
17326;508
17328;505
17330;508
17332;510
17334;504
17336;505
17338;504
17340;507
17342;503
17344;504
17346;504
17348;509
17350;513
17352;503
17354;503
17356;505
17358;504
17360;507
17362;503
17364;503
17366;507
17368;502
17370;505
17372;504
17374;505
17376;512
17378;507
17380;505
17382;505
17384;507
17386;515
17388;510
17390;507
17392;508
17394;511
17396;511
17398;505
17400;507
17402;510
17404;523
17406;524
17408;531
17410;546
17412;556
17414;574
17416;586
17418;601
17420;624
17422;634
17424;647
17426;647
17428;617
17430;593
17432;576
17434;540
17436;506
17438;488
17440;464
17442;442
17444;433
17446;432
17448;429
17450;430
17452;434
17454;437
17456;442
17458;446
17460;453
17462;461
17464;467
17466;471
17468;474
17470;482
17472;487
17474;492
17476;493
17478;497
17480;498
17482;499
17484;499
17486;501
17488;501
17490;501
17492;502
17494;502
17496;504
17498;501
17500;502
17502;503
17504;502
17506;504
17508;508
17510;506
17512;505
17514;505
17516;504
17518;506
17520;506
17522;508
17524;508
17526;506
17528;506
17530;508
17532;508
17534;508
17536;508
17538;507
17540;505
17542;506
17544;507
17546;509
17548;507
17550;509
17552;507
17554;508
17556;511
17558;510
17560;511
17562;510
17564;512
17566;510
17568;511
17570;511
17572;511
17574;512
17576;513
17578;508
17580;509
17582;512
17584;514
17586;514
17588;514
17590;515
17592;513
17594;511
17596;512
17598;511
17600;512
17602;515
17604;515
17606;514
17608;517
17610;518
17612;516
17614;518
17616;520
17618;518
17620;522
17622;523
17624;522
17626;524
17628;524
17630;523
17632;524
17634;522
17636;524
17638;525
17640;523
17642;523
17644;524
17646;528
17648;528
17650;529
17652;527
17654;527
17656;526
17658;525
17660;525
17662;528
17664;526
17666;528
17668;524
17670;526
17672;523
17674;525
17676;525
17678;527
17680;521
17682;522
17684;518
17686;518
17688;515
17690;513
17692;512
17694;509
17696;507
17698;503
17700;502
17702;500
17704;498
17706;496
17708;493
17710;493
17712;492
17714;489
17716;489
17718;488
17720;485
17722;484
17724;486
17726;485
17728;483
17730;481
17732;481
17734;483
17736;484
17738;482
17740;483
17742;483
17744;484
17746;487
17748;484
17750;485
17752;486
17754;488
17756;487
17758;488
17760;489
17762;486
17764;487
17766;490
17768;489
17770;491
17772;491
17774;493
17776;493
17778;492
17780;491
17782;490
17784;490
17786;493
17788;493
17790;495
17792;495
17794;495
17796;494
17798;496
17800;494
17802;494
17804;496
17806;500
17808;501
17810;496
17812;496
17814;493
17816;493
17818;496
17820;496
17822;497
17824;500
17826;499
17828;499
17830;500
17832;499
17834;500
17836;499
17838;500
17840;500
17842;501
17844;500
17846;501
17848;499
17850;501
17852;501
17854;503
17856;503
17858;503
17860;504
17862;503
17864;504
17866;506
17868;504
17870;505
17872;504
17874;504
17876;504
17878;505
17880;505
17882;505
17884;504
17886;505
17888;508
17890;504
17892;505
17894;506
17896;506
17898;505
17900;504
17902;504
17904;503
17906;502
17908;505
17910;506
17912;503
17914;504
17916;507
17918;504
17920;503
17922;504
17924;505
17926;504
17928;504
17930;503
17932;504
17934;505
17936;505
17938;506
17940;506
17942;506
17944;504
17946;505
17948;506
17950;501
17952;504
17954;504
17956;504
17958;504
17960;502
17962;503
17964;504
17966;504
17968;505
17970;507
17972;505
17974;504
17976;502
17978;504
17980;510
17982;504
17984;503
17986;503
17988;504
17990;505
17992;506
17994;508
17996;506
17998;506
18000;506
18002;504
18004;505
18006;505
18008;505
18010;504
18012;503
18014;505
18016;507
18018;506
18020;506
18022;505
18024;507
18026;505
18028;505
18030;506
18032;503
18034;502
18036;507
18038;506
18040;507
18042;504
18044;504
18046;504
18048;504
18050;507
18052;506
18054;507
18056;505
18058;506
18060;504
18062;505
18064;505
18066;505
18068;504
18070;504
18072;504
18074;504
18076;504
18078;506
18080;505
18082;505
18084;507
18086;506
18088;506
18090;505
18092;507
18094;506
18096;506
18098;503
18100;503
18102;504
18104;506
18106;505
18108;508
18110;507
18112;507
18114;506
18116;507
18118;505
18120;505
18122;503
18124;508
18126;506
18128;504
18130;505
18132;504
18134;506
18136;509
18138;508
18140;506
18142;505
18144;506
18146;505
18148;505
18150;505
18152;506
18154;506
18156;506
18158;506
18160;508
18162;510
18164;509
18166;506
18168;507
18170;507
18172;507
18174;510
18176;507
18178;509
18180;510
18182;511
18184;514
18186;509
18188;507
18190;506
18192;505
18194;507
18196;507
18198;508
18200;504
18202;501
18204;505
18206;506
18208;507
18210;508
18212;507
18214;511
18216;508
18218;507
18220;509
18222;506
18224;505
18226;505
18228;505
18230;505
18232;505
18234;502
18236;503
18238;504
18240;503
18242;503
18244;503
18246;502
18248;504
18250;505
18252;504
18254;505
18256;505
18258;501
18260;504
18262;504
18264;505
18266;507
18268;506
18270;510
18272;509
18274;507
18276;508
18278;508
18280;507
18282;505
18284;503
18286;506
18288;511
18290;519
18292;527
18294;536
18296;547
18298;557
18300;571
18302;589
18304;611
18306;629
18308;645
18310;648
18312;639
18314;605
18316;588
18318;557
18320;522
18322;496
18324;472
18326;449
18328;429
18330;426
18332;424
18334;428
18336;433
18338;437
18340;442
18342;447
18344;454
18346;461
18348;467
18350;474
18352;477
18354;483
18356;485
18358;491
18360;493
18362;497
18364;498
18366;501
18368;501
18370;501
18372;502
18374;502
18376;504
18378;503
18380;503
18382;501
18384;501
18386;502
18388;505
18390;507
18392;505
18394;505
18396;506
18398;506
18400;507
18402;507
18404;505
18406;505
18408;504
18410;506
18412;507
18414;502
18416;504
18418;506
18420;506
18422;507
18424;507
18426;507
18428;510
18430;510
18432;509
18434;507
18436;508
18438;512
18440;508
18442;507
18444;509
18446;508
18448;509
18450;509
18452;511
18454;510
18456;509
18458;511
18460;510
18462;513
18464;513
18466;513
18468;515
18470;516
18472;517
18474;517
18476;516
18478;514
18480;513
18482;513
18484;515
18486;513
18488;512
18490;516
18492;517
18494;516
18496;518
18498;520
18500;520
18502;521
18504;519
18506;519
18508;519
18510;520
18512;522
18514;523
18516;523
18518;527
18520;529
18522;522
18524;526
18526;526
18528;527
18530;533
18532;526
18534;531
18536;527
18538;527
18540;529
18542;529
18544;534
18546;535
18548;529
18550;529
18552;528
18554;527
18556;536
18558;527
18560;524
18562;524
18564;526
18566;531
18568;521
18570;522
18572;521
18574;515
18576;523
18578;511
18580;511
18582;506
18584;504
18586;505
18588;501
18590;503
18592;497
18594;495
18596;493
18598;494
18600;495
18602;487
18604;488
18606;487
18608;487
18610;486
18612;486
18614;489
18616;484
18618;482
18620;483
18622;488
18624;486
18626;483
18628;483
18630;483
18632;489
18634;488
18636;485
18638;485
18640;487
18642;488
18644;497
18646;489
18648;488
18650;490
18652;490
18654;497
18656;493
18658;488
18660;491
18662;490
18664;495
18666;489
18668;490
18670;486
18672;490
18674;494
18676;490
18678;491
18680;492
18682;495
18684;501
18686;493
18688;495
18690;496
18692;498
18694;503
18696;497
18698;502
18700;498
18702;498
18704;504
18706;497
18708;505
18710;500
18712;498
18714;500
18716;501
18718;504
18720;499
18722;499
18724;502
18726;503
18728;507
18730;498
18732;500
18734;498
18736;501
18738;505
18740;501
18742;500
18744;504
18746;503
18748;504
18750;504
18752;507
18754;510
18756;506
18758;503
18760;501
18762;503
18764;508
18766;502
18768;502
18770;502
18772;506
18774;506
18776;505
18778;504
18780;503
18782;508
18784;509
18786;504
18788;504
18790;503
18792;512
18794;511
18796;505
18798;501
18800;503
18802;503
18804;510
18806;504
18808;503
18810;504
18812;511
18814;509
18816;505
18818;504
18820;502
18822;508
18824;508
18826;500
18828;501
18830;501
18832;506
18834;508
18836;501
18838;500
18840;502
18842;508
18844;508
18846;504
18848;503
18850;501
18852;501
18854;507
18856;503
18858;501
18860;504
18862;505
18864;504
18866;504
18868;504
18870;506
18872;508
18874;502
18876;505
18878;505
18880;502
18882;506
18884;502
18886;502
18888;504
18890;502
18892;505
18894;503
18896;500
18898;499
18900;501
18902;503
18904;503
18906;502
18908;502
18910;501
18912;502
18914;503
18916;503
18918;503
18920;501
18922;503
18924;503
18926;503
18928;503
18930;503
18932;504
18934;502
18936;507
18938;500
18940;501
18942;503
18944;502
18946;499
18948;500
18950;503
18952;498
18954;500
18956;504
18958;503
18960;505
18962;503
18964;502
18966;500
18968;501
18970;500
18972;500
18974;504
18976;501
18978;503
18980;501
18982;502
18984;505
18986;505
18988;506
18990;511
18992;502
18994;500
18996;503
18998;503
19000;502
19002;505
19004;503
19006;505
19008;504
19010;505
19012;505
19014;504
19016;502
19018;505
19020;502
19022;506
19024;504
19026;505
19028;501
19030;498
19032;501
19034;500
19036;501
19038;500
19040;504
19042;507
19044;504
19046;504
19048;503
19050;501
19052;503
19054;504
19056;504
19058;505
19060;504
19062;505
19064;507
19066;508
19068;507
19070;507
19072;507
19074;507
19076;507
19078;509
19080;509
19082;507
19084;509
19086;509
19088;510
19090;506
19092;505
19094;504
19096;505
19098;504
19100;507
19102;507
19104;507
19106;506
19108;506
19110;506
19112;507
19114;504
19116;504
19118;501
19120;499
19122;501
19124;501
19126;502
19128;504
19130;502
19132;503
19134;504
19136;504
19138;503
19140;502
19142;500
19144;501
19146;504
19148;502
19150;502
19152;501
19154;503
19156;504
19158;505
19160;505
19162;504
19164;505
19166;503
19168;502
19170;503
19172;503
19174;504
19176;503
19178;506
19180;507
19182;510
19184;510
19186;513
19188;522
19190;528
19192;541
19194;549
19196;564
19198;578
19200;594
19202;612
19204;627
19206;641
19208;643
19210;618
19212;590
19214;570
19216;539
19218;508
19220;490
19222;470
19224;445
19226;434
19228;431
19230;429
19232;426
19234;435
19236;436
19238;439
19240;445
19242;451
19244;459
19246;467
19248;472
19250;477
19252;479
19254;484
19256;490
19258;495
19260;498
19262;499
19264;499
19266;501
19268;499
19270;500
19272;501
19274;498
19276;500
19278;502
19280;504
19282;503
19284;506
19286;504
19288;508
19290;507
19292;506
19294;505
19296;505
19298;503
19300;503
19302;507
19304;503
19306;506
19308;505
19310;506
19312;506
19314;506
19316;507
19318;507
19320;508
19322;510
19324;506
19326;509
19328;512
19330;511
19332;510
19334;510
19336;511
19338;510
19340;513
19342;508
19344;507
19346;510
19348;511
19350;512
19352;513
19354;512
19356;511
19358;513
19360;509
19362;514
19364;511
19366;515
19368;509
19370;512
19372;510
19374;512
19376;511
19378;512
19380;513
19382;515
19384;513
19386;515
19388;514
19390;516
19392;516
19394;520
19396;519
19398;517
19400;518
19402;521
19404;522
19406;520
19408;523
19410;524
19412;524
19414;524
19416;523
19418;524
19420;525
19422;525
19424;527
19426;527
19428;527
19430;529
19432;533
19434;529
19436;527
19438;528
19440;528
19442;526
19444;526
19446;524
19448;523
19450;525
19452;524
19454;521
19456;523
19458;521
19460;523
19462;521
19464;523
19466;520
19468;521
19470;517
19472;513
19474;514
19476;514
19478;509
19480;507
19482;502
19484;501
19486;499
19488;497
19490;495
19492;494
19494;494
19496;487
19498;485
19500;485
19502;487
19504;485
19506;486
19508;483
19510;485
19512;482
19514;484
19516;481
19518;478
19520;477
19522;484
19524;481
19526;482
19528;478
19530;483
19532;483
19534;485
19536;482
19538;483
19540;485
19542;485
19544;485
19546;485
19548;485
19550;486
19552;487
19554;488
19556;489
19558;489
19560;491
19562;488
19564;492
19566;493
19568;490
19570;493
19572;492
19574;493
19576;492
19578;491
19580;493
19582;504
19584;524
19586;565
19588;623
19590;647
19592;637
19594;629
19596;632
19598;619
19600;605
19602;591
19604;575
19606;568
19608;565
19610;564
19612;561
19614;557
19616;554
19618;549
19620;544
19622;537
19624;534
19626;522
19628;514
19630;501
19632;490
19634;487
19636;481
19638;478
19640;473
19642;466
19644;462
19646;464
19648;459
19650;457
19652;454
19654;456
19656;458
19658;462
19660;469
19662;471
19664;473
19666;479
19668;478
19670;481
19672;479
19674;481
19676;479
19678;473
19680;472
19682;476
19684;479
19686;480
19688;482
19690;486
19692;485
19694;486
19696;486
19698;486
19700;486
19702;487
19704;487
19706;488
19708;487
19710;482
19712;485
19714;486
19716;483
19718;485
19720;486
19722;491
19724;490
19726;490
19728;491
19730;492
19732;492
19734;491
19736;495
19738;496
19740;495
19742;496
19744;500
19746;496
19748;499
19750;500
19752;502
19754;501
19756;499
19758;499
19760;498
19762;497
19764;495
19766;496
19768;496
19770;498
19772;498
19774;495
19776;496
19778;498
19780;499
19782;499
19784;500
19786;498
19788;499
19790;500
19792;499
19794;504
19796;505
19798;505
19800;506
19802;508
19804;509
19806;508
19808;510
19810;512
19812;512
19814;515
19816;514
19818;513
19820;513
19822;516
19824;518
19826;523
19828;523
19830;530
19832;533
19834;538
19836;539
19838;540
19840;538
19842;538
19844;540
19846;532
19848;535
19850;531
19852;527
19854;528
19856;525
19858;526
19860;537
19862;545
19864;549
19866;549
19868;551
19870;544
19872;539
19874;535
19876;530
19878;523
19880;517
19882;511
19884;508
19886;504
19888;501
19890;498
19892;496
19894;494
19896;494
19898;491
19900;491
19902;489
19904;486
19906;488
19908;487
19910;487
19912;486
19914;489
19916;488
19918;488
19920;490
19922;490
19924;491
19926;491
19928;491
19930;491
19932;490
19934;489
19936;488
19938;490
19940;489
19942;486
19944;487
19946;488
19948;486
19950;489
19952;488
19954;490
19956;492
19958;496
19960;496
19962;496
19964;493
19966;492
19968;495
19970;499
19972;491
19974;504
19976;498
19978;495
19980;494
19982;495
19984;501
19986;501
19988;496
19990;496
19992;495
19994;498
19996;501
19998;497
20000;497
20002;494
20004;498
20006;496
20008;494
20010;497
20012;499
20014;505
20016;501
20018;499
20020;496
20022;497
20024;502
20026;496
20028;500
20030;503
20032;502
20034;504
20036;502
20038;504
20040;506
20042;503
20044;503
20046;502
20048;509
20050;508
20052;502
20054;502
20056;505
20058;516
20060;521
20062;518
20064;529
20066;537
20068;550
20070;567
20072;585
20074;604
20076;617
20078;635
20080;644
20082;647
20084;613
20086;587
20088;569
20090;536
20092;510
20094;490
20096;464
20098;448
20100;433
20102;432
20104;428
20106;430
20108;434
20110;436
20112;438
20114;442
20116;454
20118;463
20120;463
20122;471
20124;477
20126;484
20128;483
20130;491
20132;492
20134;496
20136;503
20138;499
20140;500
20142;504
20144;500
20146;501
20148;505
20150;503
20152;514
20154;504
20156;504
20158;504
20160;507
20162;508
20164;506
20166;508
20168;505
20170;512
20172;506
20174;504
20176;506
20178;505
20180;509
20182;508
20184;507
20186;511
20188;506
20190;506
20192;510
20194;509
20196;517
20198;506
20200;504
20202;507
20204;514
20206;511
20208;507
20210;508
20212;507
20214;516
20216;514
20218;510
20220;512
20222;512
20224;513
20226;511
20228;511
20230;509
20232;510
20234;515
20236;509
20238;510
20240;512
20242;506
20244;517
20246;535
20248;564
20250;574
20252;554
20254;571
20256;601
20258;619
20260;612
20262;598
20264;590
20266;589
20268;597
20270;588
20272;589
20274;594
20276;592
20278;591
20280;583
20282;580
20284;584
20286;568
20288;555
20290;550
20292;544
20294;541
20296;534
20298;530
20300;525
20302;534
20304;527
20306;524
20308;524
20310;525
20312;530
20314;518
20316;528
20318;519
20320;517
20322;514
20324;510
20326;501
20328;498
20330;498
20332;497
20334;493
20336;494
20338;494
20340;490
20342;485
20344;482
20346;484
20348;487
20350;488
20352;490
20354;491
20356;493
20358;488
20360;488
20362;485
20364;482
20366;480
20368;477
20370;478
20372;478
20374;475
20376;474
20378;471
20380;469
20382;469
20384;467
20386;467
20388;468
20390;467
20392;469
20394;466
20396;468
20398;469
20400;469
20402;470
20404;470
20406;469
20408;468
20410;465
20412;464
20414;465
20416;469
20418;470
20420;473
20422;476
20424;480
20426;482
20428;482
20430;481
20432;487
20434;490
20436;491
20438;495
20440;496
20442;498
20444;501
20446;500
20448;502
20450;505
20452;506
20454;508
20456;512
20458;513
20460;516
20462;517
20464;522
20466;523
20468;525
20470;527
20472;532
20474;534
20476;536
20478;539
20480;540
20482;539
20484;538
20486;539
20488;544
20490;540
20492;539
20494;546
20496;553
20498;561
20500;566
20502;568
20504;565
20506;561
20508;554
20510;544
20512;536
20514;527
20516;521
20518;515
20520;508
20522;501
20524;498
20526;493
20528;492
20530;490
20532;489
20534;489
20536;485
20538;482
20540;482
20542;480
20544;480
20546;479
20548;478
20550;477
20552;480
20554;479
20556;480
20558;479
20560;481
20562;480
20564;481
20566;479
20568;479
20570;479
20572;478
20574;480
20576;482
20578;481
20580;482
20582;484
20584;485
20586;487
20588;484
20590;482
20592;481
20594;483
20596;487
20598;485
20600;484
20602;485
20604;485
20606;487
20608;487
20610;485
20612;485
20614;486
20616;487
20618;488
20620;489
20622;491
20624;487
20626;490
20628;491
20630;493
20632;493
20634;492
20636;493
20638;492
20640;492
20642;493
20644;493
20646;496
20648;494
20650;494
20652;493
20654;495
20656;496
20658;495
20660;498
20662;498
20664;494
20666;496
20668;496
20670;499
20672;499
20674;499
20676;501
20678;498
20680;497
20682;498
20684;499
20686;496
20688;495
20690;494
20692;496
20694;496
20696;497
20698;501
20700;499
20702;499
20704;501
20706;504
20708;502
20710;499
20712;496
20714;497
20716;501
20718;503
20720;498
20722;501
20724;501
20726;502
20728;507
20730;502
20732;502
20734;502
20736;503
20738;502
20740;503
20742;504
20744;504
20746;503
20748;499
20750;502
20752;501
20754;502
20756;501
20758;502
20760;502
20762;503
20764;503
20766;502
20768;505
20770;503
20772;504
20774;504
20776;503
20778;503
20780;504
20782;501
20784;501
20786;499
20788;504
20790;505
20792;504
20794;507
20796;509
20798;510
20800;505
20802;504
20804;502
20806;500
20808;502
20810;502
20812;501
20814;500
20816;502
20818;502
20820;503
20822;504
20824;503
20826;505
20828;503
20830;505
20832;504
20834;503
20836;503
20838;505
20840;504
20842;505
20844;507
20846;504
20848;505
20850;505
20852;506
20854;507
20856;508
20858;506
20860;506
20862;502
20864;503
20866;507
20868;507
20870;510
20872;506
20874;510
20876;512
20878;507
20880;505
20882;507
20884;503
20886;505
20888;503
20890;505
20892;507
20894;505
20896;506
20898;504
20900;504
20902;502
20904;502
20906;502
20908;501
20910;500
20912;495
20914;500
20916;500
20918;505
20920;517
20922;531
20924;537
20926;573
20928;605
20930;614
20932;622
20934;635
20936;640
20938;638
20940;632
20942;620
20944;609
20946;599
20948;592
20950;584
20952;576
20954;567
20956;555
20958;541
20960;529
20962;519
20964;515
20966;507
20968;502
20970;499
20972;497
20974;500
20976;503
20978;505
20980;509
20982;508
20984;514
20986;531
20988;554
20990;584
20992;619
20994;653
20996;667
20998;651
21000;624
21002;603
21004;574
21006;538
21008;509
21010;480
21012;454
21014;438
21016;435
21018;433
21020;431
21022;434
21024;434
21026;434
21028;440
21030;441
21032;449
21034;454
21036;458
21038;460
21040;463
21042;471
21044;475
21046;477
21048;480
21050;483
21052;481
21054;481
21056;485
21058;486
21060;485
21062;485
21064;489
21066;493
21068;492
21070;495
21072;497
21074;498
21076;500
21078;504
21080;503
21082;509
21084;510
21086;512
21088;517
21090;519
21092;521
21094;522
21096;525
21098;527
21100;527
21102;530
21104;533
21106;534
21108;535
21110;535
21112;534
21114;529
21116;529
21118;524
21120;520
21122;518
21124;516
21126;513
21128;509
21130;505
21132;499
21134;498
21136;491
21138;493
21140;490
21142;491
21144;495
21146;496
21148;496
21150;498
21152;496
21154;495
21156;493
21158;492
21160;488
21162;490
21164;495
21166;493
21168;493
21170;495
21172;493
21174;493
21176;492
21178;493
21180;492
21182;495
21184;499
21186;500
21188;503
21190;502
21192;505
21194;504
21196;504
21198;506
21200;506
21202;508
21204;511
21206;510
21208;511
21210;513
21212;513
21214;513
21216;515
21218;516
21220;517
21222;516
21224;520
21226;518
21228;521
21230;522
21232;521
21234;523
21236;522
21238;523
21240;522
21242;520
21244;518
21246;519
21248;519
21250;516
21252;519
21254;516
21256;516
21258;514
21260;514
21262;513
21264;511
21266;511
21268;510
21270;506
21272;504
21274;501
21276;499
21278;496
21280;495
21282;490
21284;489
21286;485
21288;487
21290;488
21292;487
21294;486
21296;484
21298;482
21300;485
21302;482
21304;481
21306;481
21308;483
21310;480
21312;480
21314;481
21316;481
21318;483
21320;483
21322;483
21324;481
21326;481
21328;483
21330;485
21332;484
21334;486
21336;486
21338;484
21340;487
21342;487
21344;487
21346;489
21348;490
21350;488
21352;487
21354;488
21356;488
21358;489
21360;489
21362;496
21364;493
21366;502
21368;493
21370;494
21372;493
21374;494
21376;499
21378;498
21380;495
21382;494
21384;496
21386;504
21388;501
21390;497
21392;497
21394;497
21396;499
21398;499
21400;499
21402;500
21404;499
21406;499
21408;500
21410;498
21412;500
21414;501
21416;502
21418;509
21420;503
21422;501
21424;503
21426;502
21428;509
21430;500
21432;499
21434;501
21436;505
21438;508
21440;504
21442;508
21444;505
21446;504
21448;508
21450;503
21452;505
21454;503
21456;504
21458;504
21460;508
21462;503
21464;501
21466;504
21468;512
21470;511
21472;505
21474;505
21476;503
21478;511
21480;508
21482;505
21484;504
21486;503
21488;508
21490;511
21492;505
21494;505
21496;507
21498;512
21500;514
21502;506
21504;507
21506;505
21508;508
21510;509
21512;504
21514;503
21516;503
21518;504
21520;508
21522;501
21524;501
21526;502
21528;503
21530;509
21532;505
21534;505
21536;505
21538;507
21540;510
21542;504
21544;500
21546;501
21548;503
21550;510
21552;502
21554;504
21556;502
21558;512
21560;505
21562;503
21564;503
21566;504
21568;513
21570;503
21572;503
21574;502
21576;503
21578;508
21580;505
21582;506
21584;507
21586;503
21588;507
21590;504
21592;502
21594;506
21596;501
21598;505
21600;501
21602;501
21604;503
21606;504
21608;507
21610;504
21612;506
21614;511
21616;503
21618;505
21620;503
21622;502
21624;504
21626;504
21628;509
21630;505
21632;505
21634;510
21636;505
21638;504
21640;504
21642;505
21644;508
21646;506
21648;504
21650;502
21652;506
21654;503
21656;500
21658;504
21660;503
21662;508
21664;505
21666;502
21668;506
21670;504
21672;504
21674;502
21676;503
21678;506
21680;503
21682;500
21684;503
21686;503
21688;507
21690;503
21692;503
21694;502
21696;502
21698;510
21700;501
21702;500
21704;505
21706;506
21708;511
21710;503
21712;503
21714;503
21716;511
21718;512
21720;505
21722;507
21724;507
21726;521
21728;510
21730;501
21732;501
21734;501
21736;509
21738;511
21740;503
21742;504
21744;505
21746;506
21748;507
21750;506
21752;506
21754;503
21756;511
21758;505
21760;504
21762;503
21764;504
21766;504
21768;511
21770;510
21772;505
21774;505
21776;505
21778;507
21780;510
21782;506
21784;505
21786;503
21788;509
21790;507
21792;504
21794;503
21796;505
21798;508
21800;511
21802;506
21804;508
21806;508
21808;508
21810;506
21812;508
21814;506
21816;507
21818;509
21820;511
21822;508
21824;509
21826;508
21828;509
21830;509
21832;504
21834;505
21836;503
21838;505
21840;506
21842;500
21844;502
21846;502
21848;501
21850;502
21852;504
21854;503
21856;503
21858;503
21860;506
21862;505
21864;504
21866;507
21868;507
21870;509
21872;509
21874;510
21876;507
21878;505
21880;503
21882;501
21884;505
21886;512
21888;516
21890;525
21892;533
21894;547
21896;561
21898;576
21900;598
21902;616
21904;633
21906;644
21908;643
21910;616
21912;593
21914;572
21916;541
21918;510
21920;486
21922;464
21924;440
21926;430
21928;430
21930;428
21932;431
21934;435
21936;437
21938;442
21940;452
21942;458
21944;463
21946;469
21948;474
21950;479
21952;483
21954;490
21956;494
21958;494
21960;496
21962;497
21964;498
21966;496
21968;497
21970;498
21972;499
21974;503
21976;501
21978;499
21980;502
21982;502
21984;503
21986;503
21988;503
21990;502
21992;504
21994;503
21996;504
21998;505
22000;504
22002;507
22004;504
22006;506
22008;508
22010;506
22012;506
22014;506
22016;504
22018;505
22020;506
22022;509
22024;505
22026;507
22028;505
22030;507
22032;505
22034;504
22036;502
22038;503
22040;505
22042;506
22044;509
22046;510
22048;506
22050;509
22052;509
22054;509
22056;510
22058;508
22060;508
22062;509
22064;509
22066;509
22068;510
22070;512
22072;512
22074;514
22076;512
22078;513
22080;511
22082;511
22084;511
22086;513
22088;515
22090;517
22092;517
22094;521
22096;518
22098;519
22100;518
22102;520
22104;521
22106;519
22108;517
22110;519
22112;518
22114;519
22116;520
22118;520
22120;523
22122;524
22124;526
22126;526
22128;524
22130;523
22132;523
22134;524
22136;523
22138;525
22140;525
22142;526
22144;524
22146;526
22148;525
22150;524
22152;524
22154;522
22156;523
22158;524
22160;524
22162;522
22164;523
22166;519
22168;519
22170;518
22172;515
22174;513
22176;513
22178;512
22180;509
22182;507
22184;506
22186;503
22188;501
22190;499
22192;496
22194;496
22196;493
22198;493
22200;490
22202;491
22204;488
22206;489
22208;487
22210;488
22212;486
22214;483
22216;486
22218;485
22220;483
22222;485
22224;487
22226;484
22228;484
22230;484
22232;485
22234;487
22236;483
22238;487
22240;486
22242;489
22244;489
22246;490
22248;490
22250;491
22252;491
22254;489
22256;491
22258;493
22260;491
22262;491
22264;493
22266;494
22268;494
22270;493
22272;492
22274;493
22276;492
22278;492
22280;495
22282;494
22284;494
22286;494
22288;495
22290;494
22292;497
22294;495
22296;496
22298;496
22300;497
22302;497
22304;498
22306;500
22308;500
22310;498
22312;499
22314;501
22316;501
22318;502
22320;503
22322;505
22324;505
22326;505
22328;504
22330;502
22332;500
22334;499
22336;499
22338;499
22340;500
22342;500
22344;500
22346;503
22348;502
22350;503
22352;503
22354;502
22356;502
22358;502
22360;500
22362;500
22364;504
22366;501
22368;504
22370;506
22372;504
22374;502
22376;503
22378;505
22380;507
22382;505
22384;504
22386;507
22388;503
22390;504
22392;502
22394;504
22396;505
22398;505
22400;507
22402;506
22404;505
22406;505
22408;503
22410;503
22412;504
22414;503
22416;507
22418;504
22420;504
22422;505
22424;506
22426;505
22428;503
22430;507
22432;507
22434;505
22436;503
22438;502
22440;503
22442;505
22444;503
22446;502
22448;499
22450;500
22452;501
22454;503
22456;503
22458;503
22460;501
22462;502
22464;500
22466;501
22468;499
22470;503
22472;502
22474;501
22476;501
22478;507
22480;502
22482;505
22484;502
22486;504
22488;505
22490;504
22492;505
22494;504
22496;503
22498;506
22500;506
22502;504
22504;505
22506;505
22508;506
22510;504
22512;504
22514;501
22516;503
22518;503
22520;501
22522;502
22524;502
22526;502
22528;503
22530;502
22532;504
22534;503
22536;502
22538;502
22540;505
22542;504
22544;504
22546;504
22548;505
22550;503
22552;503
22554;505
22556;505
22558;504
22560;505
22562;504
22564;503
22566;505
22568;504
22570;503
22572;506
22574;505
22576;504
22578;507
22580;506
22582;505
22584;505
22586;506
22588;504
22590;506
22592;504
22594;506
22596;504
22598;502
22600;502
22602;502
22604;503
22606;505
22608;504
22610;504
22612;503
22614;503
22616;502
22618;503
22620;503
22622;501
22624;503
22626;506
22628;505
22630;506
22632;503
22634;505
22636;504
22638;503
22640;503
22642;504
22644;504
22646;505
22648;503
22650;504
22652;503
22654;504
22656;504
22658;505
22660;504
22662;503
22664;503
22666;504
22668;504
22670;502
22672;504
22674;505
22676;503
22678;504
22680;504
22682;503
22684;505
22686;506
22688;504
22690;505
22692;505
22694;510
22696;508
22698;506
22700;508
22702;504
22704;504
22706;504
22708;501
22710;503
22712;502
22714;504
22716;503
22718;504
22720;507
22722;513
22724;510
22726;506
22728;508
22730;508
22732;507
22734;511
22736;506
22738;510
22740;505
22742;505
22744;508
22746;508
22748;512
22750;510
22752;511
22754;507
22756;508
22758;509
22760;512
22762;506
22764;506
22766;509
22768;513
22770;512
22772;509
22774;506
22776;506
22778;505
22780;507
22782;504
22784;506
22786;504
22788;505
22790;509
22792;506
22794;505
22796;504
22798;507
22800;507
22802;503
22804;505
22806;502
22808;502
22810;504
22812;504
22814;501
22816;504
22818;509
22820;508
22822;503
22824;505
22826;509
22828;510
22830;506
22832;504
22834;506
22836;509
22838;510
22840;506
22842;506
22844;505
22846;504
22848;510
22850;503
22852;510
22854;511
22856;519
22858;528
22860;533
22862;547
22864;556
22866;568
22868;595
22870;611
22872;626
22874;642
22876;648
22878;636
22880;599
22882;578
22884;548
22886;519
22888;504
22890;473
22892;454
22894;435
22896;434
22898;433
22900;433
22902;436
22904;441
22906;443
22908;453
22910;453
22912;460
22914;465
22916;468
22918;474
22920;479
22922;489
22924;492
22926;494
22928;493
22930;495
22932;503
22934;499
22936;501
22938;502
22940;500
22942;507
22944;502
22946;504
22948;503
22950;503
22952;504
22954;507
22956;502
22958;504
22960;506
22962;513
22964;514
22966;507
22968;505
22970;506
22972;507
22974;507
22976;502
22978;504
22980;503
22982;511
22984;510
22986;507
22988;505
22990;507
22992;511
22994;510
22996;507
22998;508
23000;508
23002;516
23004;514
23006;512
23008;515
23010;511
23012;511
23014;514
23016;509
23018;512
23020;510
23022;508
23024;514
23026;508
23028;506
23030;507
23032;506
23034;512
23036;511
23038;510
23040;512
23042;518
23044;516
23046;511
23048;514
23050;512
23052;519
23054;514
23056;513
23058;515
23060;514
23062;516
23064;523
23066;516
23068;518
23070;516
23072;516
23074;523
23076;520
23078;519
23080;520
23082;526
23084;531
23086;526
23088;527
23090;525
23092;531
23094;529
23096;526
23098;524
23100;524
23102;524
23104;525
23106;520
23108;521
23110;524
23112;528
23114;525
23116;528
23118;525
23120;523
23122;524
23124;522
23126;532
23128;522
23130;523
23132;520
23134;522
23136;524
23138;516
23140;515
23142;514
23144;517
23146;516
23148;509
23150;503
23152;506
23154;503
23156;505
23158;498
23160;495
23162;495
23164;494
23166;494
23168;493
23170;490
23172;488
23174;482
23176;483
23178;484
23180;485
23182;482
23184;484
23186;481
23188;482
23190;485
23192;481
23194;481
23196;480
23198;491
23200;492
23202;492
23204;491
23206;490
23208;491
23210;491
23212;489
23214;491
23216;489
23218;492
23220;494
23222;496
23224;496
23226;496
23228;496
23230;496
23232;496
23234;498
23236;496
23238;497
23240;499
23242;497
23244;501
23246;499
23248;497
23250;497
23252;493
23254;497
23256;499
23258;500
23260;500
23262;505
23264;500
23266;504
23268;504
23270;504
23272;503
23274;501
23276;500
23278;503
23280;503
23282;502
23284;503
23286;504
23288;504
23290;504
23292;502
23294;500
23296;503
23298;500
23300;498
23302;498
23304;500
23306;500
23308;501
23310;501
23312;504
23314;502
23316;507
23318;504
23320;511
23322;503
23324;501
23326;504
23328;504
23330;500
23332;503
23334;502
23336;503
23338;503
23340;504
23342;502
23344;502
23346;505
23348;502
23350;505
23352;503
23354;503
23356;503
23358;503
23360;506
23362;505
23364;503
23366;502
23368;504
23370;502
23372;502
23374;501
23376;500
23378;502
23380;504
23382;502
23384;499
23386;499
23388;499
23390;502
23392;500
23394;499
23396;499
23398;499
23400;503
23402;504
23404;504
23406;504
23408;503
23410;504
23412;500
23414;504
23416;503
23418;502
23420;503
23422;502
23424;505
23426;505
23428;503
23430;503
23432;504
23434;506
23436;507
23438;507
23440;503
23442;504
23444;503
23446;502
23448;502
23450;501
23452;502
23454;502
23456;503
23458;504
23460;503
23462;503
23464;503
23466;500
23468;500
23470;500
23472;503
23474;503
23476;505
23478;503
23480;504
23482;504
23484;504
23486;503
23488;503
23490;506
23492;503
23494;502
23496;506
23498;505
23500;504
23502;501
23504;502
23506;502
23508;498
23510;502
23512;500
23514;502
23516;503
23518;502
23520;503
23522;500
23524;502
23526;504
23528;503
23530;503
23532;504
23534;503
23536;504
23538;505
23540;506
23542;503
23544;504
23546;503
23548;503
23550;503
23552;503
23554;506
23556;507
23558;507
23560;504
23562;504
23564;502
23566;504
23568;504
23570;506
23572;507
23574;503
23576;502
23578;504
23580;507
23582;508
23584;507
23586;508
23588;511
23590;509
23592;505
23594;504
23596;504
23598;506
23600;502
23602;503
23604;503
23606;502
23608;502
23610;505
23612;504
23614;504
23616;505
23618;509
23620;509
23622;510
23624;510
23626;509
23628;505
23630;506
23632;506
23634;509
23636;507
23638;507
23640;504
23642;503
23644;505
23646;507
23648;507
23650;505
23652;505
23654;504
23656;502
23658;504
23660;506
23662;505
23664;505
23666;503
23668;505
23670;505
23672;504
23674;505
23676;506
23678;505
23680;506
23682;504
23684;505
23686;502
23688;501
23690;504
23692;503
23694;508
23696;507
23698;506
23700;502
23702;506
23704;506
23706;505
23708;506
23710;504
23712;507
23714;508
23716;510
23718;508
23720;510
23722;521
23724;528
23726;534
23728;545
23730;554
23732;571
23734;587
23736;599
23738;617
23740;629
23742;637
23744;636
23746;605
23748;579
23750;560
23752;532
23754;507
23756;489
23758;469
23760;451
23762;438
23764;439
23766;437
23768;436
23770;434
23772;437
23774;443
23776;447
23778;454
23780;459
23782;464
23784;470
23786;475
23788;482
23790;484
23792;490
23794;496
23796;495
23798;500
23800;504
23802;504
23804;501
23806;502
23808;503
23810;505
23812;506
23814;504
23816;506
23818;509
23820;506
23822;510
23824;510
23826;511
23828;509
23830;506
23832;508
23834;508
23836;510
23838;510
23840;511
23842;511
23844;510
23846;504
23848;504
23850;505
23852;506
23854;511
23856;509
23858;509
23860;512
23862;512
23864;513
23866;510
23868;509
23870;509
23872;504
23874;511
23876;509
23878;512
23880;515
23882;515
23884;514
23886;513
23888;513
23890;516
23892;516
23894;518
23896;514
23898;517
23900;514
23902;515
23904;513
23906;515
23908;518
23910;517
23912;514
23914;512
23916;512
23918;515
23920;518
23922;520
23924;511
23926;516
23928;520
23930;526
23932;524
23934;518
23936;519
23938;522
23940;527
23942;529
23944;526
23946;524
23948;526
23950;529
23952;527
23954;529
23956;531
23958;532
23960;530
23962;528
23964;529
23966;528
23968;531
23970;535
23972;536
23974;531
23976;531
23978;528
23980;526
23982;526
23984;528
23986;530
23988;527
23990;529
23992;526
23994;522
23996;523
23998;530
24000;526
24002;519
24004;516
24006;516
24008;512
24010;511
24012;514
24014;515
24016;512
24018;507
24020;504
24022;501
24024;498
24026;501
24028;499
24030;501
24032;492
24034;483
24036;486
24038;488
24040;489
24042;485
24044;486
24046;486
24048;483
24050;486
24052;485
24054;484
24056;485
24058;483
24060;488
24062;486
24064;482
24066;482
24068;483
24070;484
24072;485
24074;492
24076;489
24078;489
24080;485
24082;488
24084;494
24086;491
24088;495
24090;489
24092;495
24094;486
24096;488
24098;491
24100;491
24102;498
24104;494
24106;494
24108;495
24110;497
24112;503
24114;502
24116;494
24118;496
24120;498
24122;505
24124;501
24126;498
24128;499
24130;497
24132;508
24134;505
24136;502
24138;498
24140;497
24142;507
24144;508
24146;502
24148;502
24150;506
24152;511
24154;510
24156;503
24158;506
24160;511
24162;520
24164;516
24166;506
24168;508
24170;511
24172;509
24174;505
24176;504
24178;505
24180;509
24182;510
24184;511
24186;511
24188;507
24190;509
24192;521
24194;523
24196;524
24198;519
24200;524
24202;515
24204;508
24206;513
24208;518
24210;524
24212;517
24214;519
24216;522
24218;523
24220;530
24222;528
24224;525
24226;520
24228;519
24230;521
24232;521
24234;521
24236;522
24238;522
24240;521
24242;519
24244;522
24246;521
24248;522
24250;532
24252;526
24254;519
24256;523
24258;526
24260;537
24262;527
24264;521
24266;519
24268;514
24270;522
24272;519
24274;520
24276;535
24278;532
24280;529
24282;520
24284;521
24286;530
24288;521
24290;518
24292;520
24294;513
24296;520
24298;517
24300;524
24302;521
24304;518
24306;513
24308;513
24310;523
24312;525
24314;519
24316;512
24318;504
24320;514
24322;515
24324;514
24326;516
24328;508
24330;511
24332;514
24334;507
24336;512
24338;515
24340;515
24342;510
24344;506
24346;507
24348;511
24350;514
24352;509
24354;506
24356;506
24358;513
24360;520
24362;515
24364;507
24366;513
24368;508
24370;511
24372;499
24374;496
24376;504
24378;505
24380;513
24382;512
24384;507
24386;505
24388;505
24390;510
24392;514
24394;516
24396;510
24398;502
24400;507
24402;510
24404;514
24406;515
24408;506
24410;508
24412;505
24414;513
24416;517
24418;512
24420;513
24422;514
24424;512
24426;507
24428;507
24430;516
24432;522
24434;513
24436;506
24438;500
24440;501
24442;513
24444;515
24446;509
24448;512
24450;506
24452;513
24454;508
24456;507
24458;503
24460;495
24462;501
24464;510
24466;503
24468;505
24470;504
24472;508
24474;505
24476;500
24478;505
24480;502
24482;500
24484;503
24486;503
24488;503
24490;502
24492;498
24494;496
24496;501
24498;504
24500;502
24502;491
24504;497
24506;501
24508;504
24510;502
24512;502
24514;492
24516;499
24518;496
24520;500
24522;498
24524;491
24526;495
24528;501
24530;508
24532;509
24534;501
24536;492
24538;502
24540;506
24542;516
24544;520
24546;516
24548;532
24550;540
24552;558
24554;580
24556;598
24558;608
24560;610
24562;618
24564;619
24566;607
24568;581
24570;566
24572;526
24574;492
24576;472
24578;446
24580;432
24582;432
24584;423
24586;412
24588;411
24590;414
24592;421
24594;440
24596;443
24598;447
24600;456
24602;465
24604;465
24606;468
24608;478
24610;487
24612;485
24614;484
24616;492
24618;494
24620;497
24622;494
24624;490
24626;498
24628;501
24630;499
24632;502
24634;503
24636;499
24638;492
24640;495
24642;499
24644;497
24646;491
24648;496
24650;501
24652;491
24654;495
24656;500
24658;508
24660;501
24662;499
24664;496
24666;491
24668;490
24670;496
24672;500
24674;505
24676;509
24678;510
24680;505
24682;497
24684;497
24686;496
24688;498
24690;509
24692;508
24694;500
24696;502
24698;499
24700;503
24702;506
24704;509
24706;508
24708;506
24710;508
24712;508
24714;510
24716;511
24718;506
24720;503
24722;501
24724;497
24726;504
24728;509
24730;499
24732;503
24734;508
24736;503
24738;506
24740;507
24742;504
24744;504
24746;509
24748;511
24750;517
24752;521
24754;523
24756;530
24758;520
24760;516
24762;514
24764;516
24766;517
24768;521
24770;518
24772;519
24774;521
24776;528
24778;519
24780;521
24782;523
24784;529
24786;527
24788;520
24790;513
24792;523
24794;527
24796;524
24798;525
24800;525
24802;519
24804;515
24806;510
24808;508
24810;513
24812;512
24814;506
24816;504
24818;507
24820;499
24822;486
24824;490
24826;486
24828;489
24830;493
24832;491
24834;486
24836;483
24838;480
24840;479
24842;475
24844;470
24846;472
24848;471
24850;469
24852;473
24854;463
24856;470
24858;472
24860;469
24862;466
24864;470
24866;468
24868;469
24870;464
24872;467
24874;466
24876;473
24878;475
24880;465
24882;470
24884;476
24886;479
24888;479
24890;483
24892;483
24894;481
24896;479
24898;478
24900;481
24902;480
24904;474
24906;479
24908;475
24910;477
24912;478
24914;484
24916;489
24918;481
24920;480
24922;482
24924;487
24926;489
24928;491
24930;493
24932;491
24934;502
24936;494
24938;487
24940;488
24942;490
24944;493
24946;500
24948;499
24950;491
24952;495
24954;494
24956;491
24958;498
24960;497
24962;496
24964;496
24966;498
24968;495
24970;494
24972;496
24974;496
24976;495
24978;498
24980;499
24982;499
24984;494
24986;493
24988;498
24990;497
24992;497
24994;497
24996;499
24998;497
25000;501
25002;503
25004;505
25006;500
25008;504
25010;507
25012;507
25014;507
25016;500
25018;502
25020;502
25022;502
25024;504
25026;504
25028;503
25030;505
25032;509
25034;507
25036;503
25038;504
25040;507
25042;504
25044;504
25046;502
25048;500
25050;498
25052;500
25054;504
25056;505
25058;507
25060;507
25062;509
25064;508
25066;506
25068;504
25070;504
25072;505
25074;506
25076;504
25078;503
25080;505
25082;507
25084;508
25086;505
25088;503
25090;505
25092;504
25094;505
25096;503
25098;507
25100;507
25102;508
25104;502
25106;502
